
-0.16413
-0.16413
-0.10551
-0.082064
-0.011724
0.011724
-0.011724
-0.082064
-0.082064
-0.058618
-0.046894
-0.035171
-0.011724
0.011724
0.035171
0.10551
0.11723
0.11723
0.093787
0.058618
0.023447
0.011724
-0.035171
-0.058618
-0.011724
0.023447
0.046894
0.11723
0.1524
0.1524
0.11723
0.11723
0.093787
0.082064
0.035171
-0.011724
-0.058618
-0.093787
-0.046894
-0.11723
-0.26964
-0.30481
-0.035171
0.046894
0.046894
0.070341
0.093787
0.10551
0.12896
0.18758
0.25792
0.23447
0.17585
0.10551
0.093787
0.10551
0.070341
0.011724
-0.07034
-0.093787
-0.1524
-0.14068
-0.093787
-0.11723
-0.12896
-0.10551
-0.035171
0.046894
0.023447
0.035171
0.082064
0.070341
0.082064
0.082064
0.12896
0.17585
0.12896
0.10551
0.082064
0.093787
0.058618
0.10551
0.11723
0.035171
0.023447
0.058618
0.070341
0.11723
0.046894
0
-0.011724
-0.058618
-0.046894
0.011724
0.058618
0.10551
0.14068
0.093787
0.16413
0.1524
0.093787
0.10551
0.093787
0.10551
0.082064
0.046894
0.046894
0.070341
0.12896
0.10551
0.11723
0.1524
0.12896
0.12896
0.11723
0.093787
0.082064
0.023447
0.035171
-0.035171
-0.035171
-0.011724
-0.011724
0.046894
0.035171
-0.011724
-0.046894
-0.082064
-0.082064
-0.093787
-0.035171
-0.046894
-0.046894
0.011724
0.011724
-0.035171
-0.082064
-0.082064
-0.082064
-0.046894
-0.011724
-0.035171
-0.082064
-0.12896
-0.10551
-0.11723
-0.10551
-0.093787
-0.07034
-0.058618
-0.07034
-0.082064
-0.046894
-0.046894
-0.046894
-0.011724
-0.035171
-0.058618
-0.035171
0.093787
0.29309
0.3517
0.29309
0.1993
0.11723
0.11723
0.1524
0.18758
0.24619
0.25792
0.23447
0.25792
0.29309
0.1524
0.023447
-0.011724
0.035171
0.10551
0.10551
0.011724
-0.07034
0
0.046894
0.058618
0.058618
0.035171
0.011724
-0.035171
-0.093787
-0.093787
-0.12896
-0.12896
-0.14068
-0.10551
-0.058618
-0.10551
-0.093787
-0.093787
-0.12896
-0.18758
-0.25792
-0.30481
-0.29309
-0.30481
-0.30481
-0.30481
-0.29309
-0.23447
-0.26964
-0.24619
-0.17585
-0.14068
-0.10551
-0.10551
-0.093787
-0.11723
-0.10551
-0.07034
-0.082064
-0.10551
-0.082064
-0.035171
-0.07034
-0.093787
-0.07034
-0.035171
-0.035171
-0.035171
-0.035171
-0.011724
-0.011724
0
0.046894
0.10551
0.1524
0.16413
0.16413
0.16413
0.14068
0.082064
-0.011724
-0.082064
-0.046894
0
-0.011724
0.011724
0.046894
0.082064
0.093787
0.070341
0.070341
0.058618
0.023447
-0.011724
0
0.023447
0.023447
-0.011724
-0.07034
-0.046894
-0.046894
-0.046894
-0.023447
0
0
-0.011724
-0.035171
-0.023447
-0.035171
-0.07034
-0.093787
-0.10551
-0.14068
-0.10551
-0.07034
-0.093787
-0.07034
-0.046894
-0.023447
0.023447
-0.011724
-0.058618
-0.058618
-0.058618
-0.046894
-0.035171
-0.023447
-0.023447
0.058618
0.14068
0.1524
0.11723
0.093787
0.011724
0.023447
0.023447
-0.07034
-0.16413
-0.22274
-0.17585
-0.10551
-0.082064
0
0.082064
0.093787
0.082064
0.058618
0.011724
-0.035171
-0.058618
-0.046894
-0.07034
-0.058618
-0.023447
-0.023447
-0.035171
-0.011724
0
0
0.023447
0.046894
0.035171
0.046894
0.058618
0.058618
0.082064
0.12896
0.17585
0.16413
0.093787
0.058618
0.011724
0.011724
0.058618
0.082064
0.093787
0.093787
0.058618
-0.011724
-0.10551
-0.10551
-0.058618
-0.082064
-0.058618
-0.07034
-0.07034
-0.082064
-0.11723
-0.07034
-0.07034
-0.12896
-0.07034
-0.046894
-0.12896
-0.07034
-0.046894
-0.1524
-0.22274
-0.24619
-0.28136
-0.28136
-0.25792
-0.26964
-0.21102
-0.1524
-0.10551
-0.082064
-0.046894
-0.023447
0.046894
0.10551
0.12896
0.12896
0.1524
0.058618
0.046894
0.046894
0.058618
0.035171
0.035171
0.16413
0.28136
0.18758
0.10551
0.046894
0.011724
-0.011724
-0.046894
-0.093787
-0.12896
-0.082064
-0.046894
0
-0.058618
-0.1524
-0.14068
-0.082064
-0.046894
-0.07034
-0.07034
-0.12896
-0.058618
0.070341
0.10551
0.070341
0.046894
0.046894
0.058618
0.023447
0
0.082064
-0.023447
0.10551
-0.023447
-0.07034
-0.058618
-0.093787
-0.093787
-0.046894
-0.035171
-0.023447
-0.023447
0.023447
-0.011724
-0.011724
-0.011724
-0.011724
-0.011724
-0.035171
0.011724
0.023447
0.011724
0.011724
-0.046894
-0.058618
-0.07034
0
0.082064
0.11723
0.11723
0.10551
0.023447
-0.093787
-0.082064
-0.25792
-0.50411
-0.33998
-0.1524
-0.26964
-0.58617
-0.58617
-0.26964
0.023447
0
-0.12896
-0.3517
-0.52755
-0.28136
-0.18758
-0.22274
-0.16413
-0.12896
-0.07034
-0.082064
-0.14068
-0.093787
-0.093787
-0.10551
-0.10551
-0.07034
-0.082064
-0.07034
-0.046894
-0.023447
-0.011724
-0.011724
0.023447
0.070341
-0.035171
-0.011724
-0.011724
-0.058618
-0.082064
-0.023447
0.035171
0.023447
0
0.011724
0
-0.035171
-0.023447
-0.035171
-0.082064
-0.12896
-0.14068
-0.12896
-0.14068
-0.093787
-0.093787
-0.14068
-0.093787
-0.10551
-0.12896
-0.11723
-0.082064
-0.07034
-0.082064
-0.11723
-0.082064
-0.12896
-0.093787
-0.093787
-0.12896
-0.11723
-0.14068
-0.14068
-0.10551
0.011724
-0.011724
0.082064
0.082064
0.082064
0.011724
0.011724
0.023447
0.058618
-0.023447
-0.046894
-0.046894
0
0.070341
0.16413
-0.14068
-0.10551
-0.07034
-0.046894
-0.046894
0
-0.035171
0
0.011724
0.035171
0.035171
0.093787
0.26964
0.058618
-0.21102
-0.11723
-0.011724
0.082064
-0.023447
0
-0.11723
-0.07034
-0.18758
-0.035171
-0.07034
-0.10551
-0.14068
-0.058618
-0.035171
-0.07034
-0.11723
-0.058618
-0.058618
-0.07034
-0.07034
-0.058618
-0.023447
-0.07034
-0.082064
-0.07034
-0.046894
-0.07034
-0.058618
0.046894
0.093787
0.011724
-0.011724
-0.035171
-0.058618
-0.093787
-0.082064
-0.058618
-0.035171
-0.046894
0.023447
-0.011724
-0.035171
-0.046894
-0.023447
0.023447
-0.14068
-0.29309
-0.18758
0.046894
0.14068
0.12896
0.082064
0.070341
0.093787
0.035171
-0.058618
-0.10551
0.011724
0
-0.16413
-0.12896
-0.14068
0
0.023447
-0.035171
-0.07034
-0.25792
-0.28136
-0.30481
-0.023447
0.10551
0.023447
0.12896
0.22274
0.18758
0.21102
0.17585
0.14068
0.16413
0.16413
0.16413
0.11723
0.18758
0.18758
0.14068
0.1524
0.082064
0.082064
0.082064
0.035171
0.046894
0.082064
0.1524
0.14068
0.058618
0.093787
0.10551
0.093787
0.035171
0.023447
0.023447
-0.046894
-0.093787
-0.18758
-0.1524
-0.035171
-0.011724
0.035171
0
0.035171
0.058618
0.082064
0.058618
0.046894
0.023447
-0.023447
-0.082064
-0.36343
-0.28136
-0.035171
0
0.023447
0.023447
-0.07034
-0.1524
-0.23447
-0.38687
-0.33998
-0.023447
0
-0.11723
-0.32826
-0.11723
-0.035171
0.093787
0.058618
0
-0.011724
0
0.035171
0.035171
0.046894
-0.023447
-0.058618
-0.082064
-0.035171
-0.046894
-0.07034
-0.07034
0.011724
-0.046894
-0.011724
0
0.1524
-0.058618
-0.12896
-0.058618
-0.035171
-0.046894
-0.07034
-0.07034
-0.082064
-0.07034
-0.07034
-0.10551
-0.14068
-0.082064
-0.046894
-0.14068
-0.1524
-0.18758
-0.28136
-0.29309
-0.25792
-0.10551
-0.035171
0.035171
0.035171
0.18758
0.29309
0.17585
0.070341
0.11723
0.093787
0.093787
0.082064
0.082064
0.082064
0.046894
0.035171
-0.035171
-0.11723
0.046894
0.046894
0.011724
0.011724
0.023447
0.058618
0.070341
0.070341
0.046894
0.10551
0.16413
0.12896
0.16413
0.17585
0.22274
0.1993
0.21102
0.093787
0.082064
0.12896
0.11723
0.18758
0.28136
0.14068
0.023447
0.093787
0.11723
0.14068
0.18758
0.24619
0.32826
0.36343
0.36343
0.3517
0.33998
0.31653
0.31653
0.29309
0.23447
0.33998
0.1524
0.12896
0.11723
0.1524
0.14068
0.16413
0.18758
0.17585
0.18758
0.21102
0.23447
0.22274
0.24619
0.24619
0.18758
0.23447
0.082064
0.035171
0.070341
0.11723
0.070341
0.023447
0.058618
0.093787
0.10551
0.1524
0.16413
0.23447
0.18758
0.1524
0.12896
0.093787
0.093787
0.12896
0.22274
0.23447
0.25792
0.1993
0.28136
0.31653
0.1993
0.1524
0.17585
0.093787
0.011724
0.023447
0.023447
0
0.070341
0.11723
0.10551
0.17585
0.18758
0.23447
0.29309
0.3517
0.37515
0.31653
0.26964
0.31653
0.29309
0.18758
0.1524
0.12896
0.10551
0.14068
0.18758
0.17585
0.1993
0.30481
0.29309
0.24619
0.22274
0.18758
0.16413
0.082064
0.082064
0.011724
-0.011724
0
0.023447
-0.011724
-0.023447
-0.046894
-0.035171
0.035171
0.16413
0.26964
0.24619
0.16413
0.11723
0.1524
0.17585
0.14068
0.14068
0.082064
0.023447
0.011724
-0.011724
-0.011724
-0.023447
-0.023447
-0.023447
0.023447
-0.011724
-0.023447
-0.011724
-0.011724
0.011724
-0.011724
-0.046894
-0.023447
-0.011724
-0.046894
-0.093787
-0.082064
-0.023447
-0.046894
-0.035171
-0.035171
-0.035171
-0.035171
-0.046894
-0.046894
-0.046894
-0.046894
-0.023447
-0.023447
-0.07034
-0.10551
-0.12896
-0.17585
-0.18758
-0.18758
-0.17585
-0.18758
-0.14068
-0.10551
-0.093787
-0.11723
-0.11723
-0.10551
-0.082064
-0.07034
-0.082064
-0.082064
-0.11723
-0.12896
-0.1524
-0.11723
-0.058618
-0.046894
-0.07034
-0.10551
-0.12896
-0.16413
-0.18758
-0.18758
-0.16413
-0.14068
-0.093787
-0.011724
-0.07034
-0.07034
-0.07034
-0.058618
-0.07034
-0.082064
-0.12896
-0.10551
-0.14068
-0.18758
-0.21102
-0.21102
-0.17585
-0.14068
-0.082064
-0.058618
-0.046894
-0.082064
-0.07034
-0.082064
-0.082064
-0.023447
0
-0.046894
-0.058618
0.035171
0.011724
0
-0.023447
0
-0.058618
-0.082064
-0.082064
-0.093787
-0.082064
-0.093787
-0.11723
-0.11723
-0.093787
-0.093787
-0.082064
-0.07034
-0.058618
-0.046894
-0.035171
-0.023447
-0.023447
0
0.023447
0.011724
0.023447
0.035171
0.023447
0
-0.023447
-0.023447
-0.023447
0.035171
0.058618
0.046894
0.023447
0.046894
0.10551
0.17585
0.1993
0.18758
0.18758
0.14068
0.12896
0.093787
0.023447
0
0
0.035171
0.070341
0.093787
0.093787
0.082064
0.082064
0.11723
0.12896
0.14068
0.12896
0.1524
0.093787
0.082064
0.10551
0.058618
0.058618
0.023447
0.046894
0.035171
0.011724
-0.011724
-0.023447
0
0
-0.011724
-0.011724
-0.058618
-0.082064
-0.10551
-0.082064
-0.058618
-0.035171
0
0.046894
0.035171
-0.023447
-0.035171
-0.14068
-0.16413
-0.1524
-0.1993
-0.1993
-0.16413
-0.082064
0.035171
0.093787
0.070341
0.035171
0.035171
0.070341
0.058618
0.058618
0.035171
-0.035171
-0.023447
0.011724
-0.011724
-0.011724
0.011724
0.023447
0.035171
-0.011724
-0.011724
-0.023447
0.046894
0.035171
0.058618
0.046894
0.011724
-0.011724
-0.058618
-0.07034
0
0.023447
-0.023447
-0.058618
-0.058618
-0.023447
-0.046894
-0.058618
-0.046894
0.058618
0.17585
0.16413
0.1524
0.082064
0.058618
0.058618
0.035171
0.023447
0
0.011724
0.023447
-0.023447
0.011724
0.023447
-0.023447
-0.11723
-0.22274
-0.25792
-0.21102
-0.24619
-0.1524
-0.14068
-0.07034
0.023447
0.058618
0.093787
0.10551
0.093787
0.035171
0.023447
0.058618
0.070341
0.035171
0.011724
0.035171
0.023447
-0.046894
-0.082064
-0.10551
-0.12896
-0.16413
-0.16413
-0.24619
-0.26964
-0.25792
-0.26964
-0.25792
-0.23447
-0.23447
-0.22274
-0.23447
-0.23447
-0.23447
-0.22274
-0.22274
-0.18758
-0.11723
-0.046894
-0.011724
0.035171
0.082064
0.10551
0.10551
0.10551
0.093787
0.035171
-0.035171
-0.11723
-0.17585
-0.17585
-0.12896
-0.093787
-0.046894
-0.07034
-0.082064
-0.011724
0.023447
0.058618
0.082064
0.058618
0.046894
0.070341
0.046894
0
0.011724
0
-0.023447
-0.023447
-0.023447
0.011724
0.023447
0.011724
0.023447
-0.035171
-0.023447
-0.035171
-0.023447
-0.046894
-0.058618
-0.10551
-0.12896
-0.07034
-0.011724
0
-0.011724
0
-0.082064
-0.093787
-0.035171
-0.011724
0.023447
0.035171
0.011724
0.023447
0.035171
0.046894
0.023447
0.011724
-0.011724
-0.035171
-0.035171
0.011724
0.082064
0.093787
0.093787
0.058618
0.070341
0.082064
-0.011724
0
0.011724
-0.023447
-0.046894
-0.046894
-0.023447
-0.011724
-0.046894
-0.046894
-0.046894
-0.046894
-0.035171
0
-0.023447
0.011724
0.011724
0.035171
0.023447
0.058618
0.082064
0.058618
0.023447
0.046894
0.082064
0.035171
0.035171
0.035171
0.058618
-0.011724
-0.046894
-0.12896
-0.14068
-0.093787
-0.093787
-0.035171
0.035171
0.035171
0.035171
0.046894
0.082064
0.082064
0.093787
0.10551
0.093787
0.070341
0.082064
0.093787
0.10551
0.093787
0.058618
0.058618
0.011724
0
0
-0.035171
0.023447
-0.046894
-0.07034
-0.035171
-0.046894
-0.046894
-0.035171
-0.046894
-0.082064
-0.082064
-0.14068
-0.10551
-0.023447
0.023447
0.023447
0.10551
0.11723
0.082064
0.035171
0.035171
0.046894
0.070341
0.093787
0.10551
0.12896
0.17585
0.12896
0.12896
0.070341
0.035171
0.070341
0.035171
0
0.011724
0.070341
0.11723
0.1524
0.1524
0.1524
0.18758
0.21102
0.18758
0.18758
0.22274
0.23447
0.23447
0.22274
0.1524
0.16413
0.16413
0.18758
0.25792
0.32826
0.30481
0.12896
0.070341
0.1993
0.24619
0.24619
0.25792
0.24619
0.22274
0.18758
0.14068
0.093787
0.093787
0.093787
0.10551
0.082064
0.082064
0.14068
0.10551
0.093787
0.082064
0.093787
0.10551
0.093787
0.093787
0.093787
0.082064
0.070341
0.058618
0.058618
0.058618
0.046894
0.035171
0.023447
0.023447
-0.023447
-0.011724
0.023447
0.082064
0.11723
0.14068
0.1524
0.14068
0.093787
0.023447
0.023447
0
0
-0.035171
0.011724
-0.011724
-0.035171
0.011724
0.023447
0.035171
0.011724
-0.035171
-0.046894
-0.046894
-0.058618
-0.07034
-0.058618
-0.023447
0
0.035171
0.082064
0.11723
0.12896
0.12896
0.11723
0.10551
0.046894
-0.011724
0.035171
0.023447
-0.011724
0.035171
0.023447
-0.011724
-0.07034
-0.058618
-0.046894
-0.046894
0
-0.11723
-0.1993
-0.046894
-0.035171
-0.07034
-0.17585
-0.25792
-0.11723
0.11723
0.22274
0.23447
0.18758
0.14068
0.11723
0.093787
0.070341
0.093787
0.16413
0.17585
0.17585
0.18758
0.1993
0.22274
0.23447
0.1993
0.24619
0.23447
0.23447
0.21102
0.22274
0.21102
0.17585
0.1524
0.14068
0.14068
0.14068
0.12896
0.14068
0.082064
0.093787
0.12896
0.082064
0.10551
0.12896
0.1524
0.11723
0.023447
-0.011724
-0.023447
-0.011724
0
0.035171
0.070341
0.070341
0.070341
0.12896
0.1524
0.16413
0.16413
0.14068
0.21102
0.28136
0.24619
0.21102
0.22274
0.1993
0.12896
0.046894
0
0
-0.023447
-0.058618
-0.082064
-0.07034
-0.046894
-0.11723
-0.11723
-0.10551
-0.11723
-0.11723
-0.058618
-0.023447
0.011724
-0.023447
-0.023447
-0.023447
-0.046894
-0.17585
-0.011724
0.24619
-0.035171
-0.058618
-0.31653
-0.23447
-0.14068
0
0.25792
0.17585
0.24619
0.21102
0.10551
0.093787
0.10551
0.011724
0.082064
0.10551
0.24619
0.33998
0.33998
0.1993
0.058618
0.11723
0.18758
0.12896
0.046894
0.093787
0.11723
0.14068
0.18758
0.1993
0.17585
0.11723
0.082064
0.11723
0.14068
0.10551
0.11723
0.035171
-0.058618
-0.035171
0.10551
0.16413
0.16413
0.17585
0.21102
0.23447
0.23447
0.23447
0.24619
0.17585
0.082064
0.011724
-0.023447
-0.023447
-0.011724
0
0
0.023447
-0.046894
-0.07034
-0.058618
-0.035171
0
-0.058618
-0.07034
0.1524
0.093787
0.093787
0.17585
0.1524
0.18758
0.10551
0.1524
0.21102
0.093787
0.058618
0.035171
0.023447
-0.035171
-0.035171
-0.023447
-0.058618
-0.058618
-0.046894
-0.035171
-0.035171
-0.046894
-0.058618
-0.082064
-0.058618
-0.046894
-0.11723
-0.21102
-0.22274
-0.25792
-0.24619
-0.14068
-0.046894
-0.035171
0
0.011724
-0.07034
0.070341
0.11723
0.12896
0.12896
0.1524
0.093787
0.12896
0.11723
0.11723
0.10551
0.070341
0.035171
0.011724
0.070341
0.058618
0.046894
0.046894
0.093787
0.070341
0.023447
0.058618
0.1524
0
-0.07034
-0.18758
-0.17585
-0.12896
-0.07034
-0.046894
0
0
0.011724
0.046894
-0.011724
0.023447
0.011724
-0.035171
0.023447
0.082064
0.1524
0.070341
-0.093787
-0.023447
-0.011724
0.023447
0.035171
-0.011724
-0.035171
-0.093787
-0.10551
-0.07034
-0.023447
-0.011724
-0.058618
-0.058618
-0.046894
0
0.023447
0.011724
0.046894
0.023447
-0.035171
0
0.011724
0.023447
-0.023447
-0.011724
0.023447
-0.011724
-0.046894
-0.011724
-0.035171
-0.011724
0.023447
0.011724
0.035171
0.058618
0.093787
0.14068
0.17585
0.17585
0.1993
0.21102
0.1993
0.18758
0.18758
0.1993
0.17585
0.10551
0.082064
0.082064
0.046894
0.011724
0.035171
0.035171
0.046894
0.058618
0.082064
0.058618
0.046894
0.046894
0.058618
0.058618
0.082064
0.10551
0.10551
0.12896
0.11723
0.12896
0.1524
0.16413
0.14068
0.1524
0.1524
0.093787
0.023447
0.011724
-0.035171
-0.011724
0.046894
0.093787
0.1524
0.12896
0.011724
-0.10551
-0.10551
-0.058618
-0.023447
0.011724
0.093787
0.18758
0.23447
0.22274
0.18758
0.16413
0.11723
0.070341
0.023447
-0.023447
-0.093787
-0.12896
-0.058618
-0.046894
-0.023447
-0.011724
-0.011724
-0.035171
-0.023447
0
-0.011724
0.035171
0.046894
0.070341
0.14068
0.11723
0.082064
0.12896
0.12896
0.1524
0.14068
0.12896
0.093787
-0.023447
-0.023447
-0.058618
-0.046894
-0.011724
0
0.011724
0.058618
0.082064
0.093787
0.082064
0.082064
0.070341
0.070341
0.093787
0.1524
0.17585
0.23447
0.26964
0.26964
0.22274
0.14068
0.082064
0
-0.011724
0.011724
-0.023447
0.011724
0.023447
0.023447
-0.023447
-0.046894
-0.023447
-0.12896
-0.093787
-0.082064
-0.046894
-0.035171
-0.046894
-0.035171
-0.011724
-0.035171
-0.011724
0.035171
0.12896
0.17585
0.16413
0.12896
0.093787
0.058618
0
-0.07034
-0.058618
-0.035171
-0.023447
-0.023447
-0.011724
-0.046894
-0.011724
-0.046894
-0.058618
-0.058618
-0.046894
-0.07034
-0.10551
-0.10551
-0.11723
-0.11723
-0.093787
-0.10551
-0.093787
-0.14068
-0.1524
-0.1524
-0.16413
-0.22274
-0.1993
-0.082064
-0.058618
-0.035171
-0.011724
-0.011724
0.023447
0.046894
0.023447
-0.07034
-0.12896
0
0
-0.10551
-0.1993
-0.22274
-0.12896
-0.24619
-0.1993
-0.14068
-0.082064
-0.10551
-0.17585
0
-0.07034
-0.082064
-0.093787
-0.093787
-0.12896
-0.10551
-0.093787
-0.082064
-0.07034
-0.058618
-0.046894
-0.058618
-0.046894
-0.023447
-0.046894
-0.058618
-0.07034
-0.082064
-0.082064
-0.07034
-0.035171
-0.011724
0.011724
0.023447
0.035171
0.035171
0.046894
0.023447
-0.011724
0
0.011724
0.011724
0.023447
0.023447
0
0
-0.011724
0.023447
0.058618
0.10551
0.082064
0.11723
0.10551
0.10551
0.082064
0.070341
0.046894
0.046894
0.058618
0.070341
0.070341
0.011724
-0.023447
-0.035171
-0.011724
-0.035171
-0.023447
-0.023447
-0.011724
-0.035171
-0.023447
-0.011724
0.023447
0.035171
0.035171
0.011724
0.035171
0.035171
0.058618
0.093787
0.10551
0.10551
0.058618
-0.046894
-0.082064
-0.10551
-0.12896
-0.1524
-0.14068
-0.1524
-0.12896
-0.082064
-0.082064
-0.10551
-0.093787
-0.093787
-0.07034
-0.058618
-0.011724
-0.011724
-0.011724
-0.011724
0.011724
0.023447
0
-0.035171
-0.023447
-0.035171
0.046894
0.046894
0.058618
0.093787
0.10551
0.1524
0.17585
0.17585
0.14068
0.14068
0.12896
0.10551
0.093787
0.082064
0.093787
0.10551
0.10551
0.11723
0.10551
0.14068
0.12896
0.082064
0.046894
0.058618
0.035171
0.023447
-0.011724
-0.035171
-0.058618
-0.07034
-0.058618
-0.035171
-0.058618
-0.058618
-0.046894
-0.07034
-0.035171
-0.035171
0
0.023447
0.046894
0.11723
0.11723
0.12896
0.12896
0.10551
0.058618
0
-0.046894
-0.11723
-0.082064
-0.046894
-0.046894
-0.035171
-0.011724
-0.023447
-0.035171
-0.046894
-0.07034
-0.058618
-0.035171
-0.058618
-0.058618
-0.046894
-0.035171
-0.011724
-0.046894
-0.023447
0.023447
0.035171
0.035171
0.023447
0.023447
0.058618
0.070341
0.12896
0.14068
0.12896
0.1993
0.26964
0.21102
0.16413
0.093787
0.035171
0.035171
0.070341
0.093787
0.10551
0.10551
0.11723
0.16413
0.24619
0.25792
0.25792
0.17585
0.14068
0.14068
0.12896
0.10551
0.082064
0.011724
-0.023447
-0.035171
0
-0.035171
-0.035171
0
-0.035171
-0.07034
-0.10551
-0.082064
-0.11723
-0.11723
-0.12896
-0.11723
-0.14068
-0.10551
-0.082064
-0.058618
-0.035171
-0.011724
0
0.070341
-0.035171
-0.035171
-0.011724
-0.023447
-0.046894
-0.07034
-0.046894
-0.058618
-0.058618
-0.046894
-0.07034
-0.093787
-0.10551
-0.10551
-0.10551
-0.058618
-0.082064
-0.14068
-0.12896
-0.14068
-0.1524
-0.12896
-0.1524
-0.1524
-0.12896
-0.10551
-0.058618
-0.082064
-0.1524
-0.1524
-0.23447
-0.30481
-0.30481
-0.26964
-0.14068
-0.082064
-0.07034
-0.058618
-0.058618
-0.07034
-0.07034
-0.046894
-0.035171
-0.035171
-0.035171
-0.035171
-0.023447
-0.011724
0.011724
-0.011724
-0.035171
-0.046894
-0.07034
-0.035171
-0.046894
-0.046894
-0.082064
-0.093787
-0.058618
-0.058618
-0.07034
0.011724
0.10551
0.11723
0.058618
0.058618
0.082064
0.093787
0.070341
0.046894
0.10551
0.11723
0.11723
0.1524
0.11723
0.10551
0.070341
0.046894
0.035171
0.011724
0.046894
0.035171
0.035171
0
-0.011724
0.011724
0.011724
-0.011724
0.023447
0.011724
0.035171
0.011724
0.046894
0.046894
0.046894
0
-0.023447
-0.058618
-0.046894
-0.023447
-0.011724
-0.023447
-0.035171
-0.035171
-0.023447
-0.011724
-0.058618
-0.046894
-0.046894
-0.058618
-0.046894
-0.035171
-0.035171
-0.023447
-0.011724
-0.011724
0
-0.011724
-0.035171
-0.035171
-0.07034
-0.1524
-0.1524
-0.14068
-0.12896
-0.093787
-0.1524
-0.21102
-0.1524
-0.07034
-0.11723
-0.16413
-0.1993
-0.082064
-0.23447
-0.07034
-0.082064
-0.42204
-0.3986
-0.1524
0.10551
0.14068
0.18758
0.18758
0.14068
0.070341
0.035171
-0.011724
-0.046894
0.046894
0.12896
0.093787
0.082064
0.082064
0.093787
0.093787
0.058618
0.046894
0.082064
0.11723
0.1524
0.16413
0.16413
0.16413
0.16413
0.14068
0.1524
0.16413
0.16413
0.14068
0.11723
0.082064
0.035171
0
0.023447
0.035171
0.082064
0.10551
0.12896
0.12896
0.11723
0.10551
0.11723
0.11723
0.14068
0.16413
0.16413
0.21102
0.23447
0.17585
0.1524
0.1524
0.14068
0.11723
0.10551
0.093787
0.046894
0.046894
0.035171
0.023447
0.046894
0.070341
0.058618
0.011724
-0.023447
-0.023447
-0.058618
-0.093787
-0.093787
-0.093787
-0.023447
-0.011724
0
0.011724
0.035171
0.11723
0.17585
0.18758
0.14068
0.093787
0.070341
0.070341
0.058618
0.046894
0.046894
0.023447
0.011724
0.023447
0.046894
0.035171
0.023447
0.023447
0.011724
-0.011724
-0.035171
-0.07034
-0.07034
-0.035171
-0.023447
-0.082064
-0.12896
-0.082064
-0.082064
-0.093787
-0.10551
-0.07034
-0.046894
-0.046894
-0.058618
-0.058618
-0.035171
0.035171
0.058618
0.046894
0.023447
0.035171
0
-0.023447
0
0.046894
0.058618
0.035171
0
0.011724
0
-0.023447
-0.011724
-0.011724
-0.023447
-0.046894
-0.07034
-0.082064
-0.10551
-0.12896
-0.093787
-0.082064
-0.093787
-0.12896
-0.1993
-0.21102
-0.1993
-0.1524
-0.082064
-0.07034
-0.1524
-0.10551
-0.058618
-0.035171
0.023447
0.070341
0.093787
0.070341
0.023447
0.011724
-0.058618
-0.12896
-0.10551
-0.11723
-0.10551
-0.1524
-0.17585
-0.12896
-0.07034
-0.093787
-0.035171
-0.011724
0.035171
0.046894
0.035171
0.011724
-0.023447
-0.023447
-0.023447
-0.023447
-0.023447
0.023447
0.035171
0.011724
-0.023447
0
0.023447
-0.093787
-0.082064
-0.058618
-0.011724
-0.011724
0.011724
0.058618
0.12896
0.21102
0.26964
0.24619
0.1993
0.1993
0.17585
0.18758
0.1524
0.11723
0.10551
0.070341
0.023447
0.035171
0.035171
0.058618
0.011724
-0.011724
0.011724
0
0.011724
0.035171
0.046894
0.035171
0.023447
0
-0.058618
-0.12896
-0.18758
-0.18758
-0.23447
-0.24619
-0.24619
-0.21102
-0.17585
-0.1524
-0.07034
-0.18758
-0.16413
-0.093787
-0.011724
0.011724
0.035171
0.082064
0.11723
0.14068
0.093787
0.10551
0.12896
0.12896
0.093787
0.058618
0.070341
0.093787
0.093787
0.10551
0.12896
0.14068
0.12896
0.11723
0.10551
0.14068
0.12896
0.17585
0.12896
0.11723
0.10551
0.10551
0.12896
0.11723
0.011724
-0.046894
0.035171
0.011724
0.035171
0.070341
0.023447
-0.035171
-0.023447
-0.046894
-0.011724
0
-0.046894
-0.023447
-0.058618
-0.07034
-0.023447
-0.035171
-0.023447
-0.011724
-0.011724
0.011724
0.046894
0.058618
0.035171
-0.011724
-0.07034
-0.11723
-0.1524
-0.14068
-0.12896
-0.093787
-0.058618
-0.07034
-0.10551
-0.046894
0.023447
0.023447
0.070341
0.17585
0.22274
0.26964
0.30481
0.26964
0.23447
0.22274
0.22274
0.16413
0.18758
0.21102
0.1993
0.16413
0.14068
0.14068
0.12896
0.070341
0.10551
0.1524
0.21102
0.21102
0.18758
0.1524
0.093787
0.023447
0
0.023447
0.035171
0.058618
0.046894
0.11723
0.18758
0.17585
0.058618
0.011724
-0.011724
-0.023447
-0.046894
-0.011724
-0.082064
-0.082064
-0.07034
-0.046894
-0.046894
-0.046894
-0.023447
-0.011724
0
-0.011724
-0.035171
0
-0.023447
-0.07034
-0.10551
-0.11723
-0.16413
-0.17585
-0.16413
-0.12896
-0.093787
-0.035171
-0.07034
-0.058618
-0.07034
-0.093787
-0.12896
-0.10551
-0.12896
-0.1993
-0.1993
-0.07034
0
0.035171
0.035171
0.023447
0.023447
0.070341
0.070341
0.058618
0.035171
0.011724
0
-0.011724
-0.023447
-0.023447
-0.035171
-0.046894
-0.082064
-0.10551
-0.093787
-0.10551
-0.093787
-0.093787
-0.12896
-0.18758
-0.1993
-0.18758
-0.18758
-0.1524
-0.12896
-0.14068
-0.14068
-0.093787
-0.1524
-0.18758
-0.16413
-0.14068
-0.035171
-0.023447
0
0
-0.011724
0
0
-0.011724
-0.011724
0.011724
0.023447
0.011724
0
-0.023447
-0.035171
-0.035171
-0.035171
-0.046894
-0.046894
-0.082064
-0.11723
-0.16413
-0.17585
-0.18758
-0.14068
-0.1524
-0.1993
-0.18758
-0.17585
-0.16413
-0.17585
-0.1524
-0.14068
-0.093787
-0.058618
-0.023447
-0.023447
0
0.023447
0.011724
0
-0.023447
-0.023447
-0.011724
0.023447
0.023447
0.011724
0.011724
-0.082064
-0.093787
-0.058618
-0.07034
-0.082064
-0.046894
-0.046894
-0.093787
-0.093787
-0.10551
-0.082064
-0.10551
-0.082064
-0.07034
-0.058618
-0.093787
-0.082064
-0.023447
0.023447
-0.058618
-0.035171
0
0
0.011724
0.023447
0.023447
0.046894
0.035171
0.023447
0.011724
0
-0.07034
-0.093787
-0.093787
-0.11723
-0.12896
-0.10551
-0.07034
-0.10551
-0.07034
-0.035171
-0.058618
-0.10551
-0.07034
-0.035171
-0.046894
-0.093787
-0.10551
-0.093787
-0.046894
-0.011724
0
0.058618
0.12896
0.046894
-0.035171
-0.1524
-0.14068
-0.023447
0.10551
0.10551
0.035171
0
-0.023447
-0.082064
-0.10551
-0.16413
-0.31653
-0.26964
-0.082064
-0.011724
0.082064
0.093787
0.058618
0.023447
0.082064
0.25792
0.28136
0.31653
0.37515
0.41032
0.41032
0.3986
0.36343
0.31653
0.25792
0.24619
0.30481
0.28136
0.24619
0.21102
0.16413
0.16413
0.14068
0.14068
0.1524
0.12896
0.1524
0.16413
0.16413
0.082064
-0.046894
-0.093787
-0.11723
-0.1993
-0.26964
-0.1993
-0.07034
0.046894
0.10551
0.070341
0.023447
0.035171
0.011724
0
-0.023447
-0.046894
-0.07034
-0.082064
-0.1993
-0.1993
-0.12896
-0.035171
-0.011724
-0.011724
-0.058618
-0.058618
0.011724
0.046894
0.058618
0.058618
0.035171
0
-0.023447
-0.082064
-0.11723
-0.12896
-0.10551
-0.093787
-0.082064
-0.058618
-0.07034
-0.058618
-0.046894
-0.023447
-0.023447
-0.082064
-0.058618
-0.082064
-0.07034
-0.07034
-0.093787
-0.10551
-0.07034
-0.011724
-0.046894
-0.082064
-0.12896
-0.24619
-0.30481
-0.29309
-0.24619
-0.18758
-0.14068
-0.16413
-0.16413
-0.1524
-0.082064
-0.035171
-0.011724
-0.023447
-0.035171
-0.023447
0.035171
0.011724
0
0.046894
0.046894
0.011724
0.011724
0.035171
0.046894
0.082064
0.093787
0.082064
0.12896
0.046894
0.035171
0.070341
0.070341
0.070341
0.023447
0.035171
0.011724
0.023447
-0.023447
-0.011724
-0.046894
-0.046894
-0.011724
-0.011724
-0.058618
0
-0.011724
-0.24619
-0.32826
-0.17585
-0.10551
-0.058618
0
0.046894
0.058618
0.046894
0.058618
0.058618
0.046894
0.070341
0.082064
0.093787
0.093787
0.14068
0.18758
0.22274
0.22274
0.23447
0.1993
0.058618
0.058618
0.12896
0.1993
0.21102
0.1524
0.11723
0.10551
0.082064
0.046894
0.011724
-0.023447
-0.046894
-0.082064
-0.082064
-0.07034
-0.046894
-0.035171
-0.023447
-0.023447
-0.035171
-0.046894
-0.07034
-0.023447
0
0.058618
0.082064
0.10551
0.10551
0.082064
0.070341
0.10551
0.058618
0.046894
0.011724
0.035171
0
-0.011724
-0.035171
-0.058618
-0.011724
0.023447
0.035171
0.046894
0.023447
-0.14068
-0.07034
-0.011724
0.011724
0.023447
0.023447
0
0.023447
0.058618
0.070341
-0.011724
-0.023447
0.011724
-0.011724
0
0.023447
0.011724
0.023447
-0.035171
-0.011724
0.046894
0.093787
0.046894
0.023447
0.035171
0.023447
0.023447
0.023447
0.011724
0
-0.011724
0
0.035171
0.058618
-0.011724
-0.023447
-0.023447
-0.011724
-0.011724
-0.046894
-0.10551
-0.082064
-0.035171
-0.035171
-0.046894
-0.046894
-0.082064
-0.058618
-0.07034
-0.058618
-0.046894
-0.035171
-0.011724
0.023447
0.011724
0.023447
0.070341
0.11723
0.11723
0.035171
0.011724
-0.011724
-0.07034
-0.12896
-0.11723
-0.093787
-0.082064
-0.093787
-0.046894
-0.082064
-0.11723
-0.082064
-0.035171
0.011724
0.10551
0.14068
0.17585
0.16413
0.18758
0.18758
0.16413
0.18758
0.23447
0.1524
0.058618
0.058618
0.093787
0.12896
0.12896
0.082064
0.058618
0.070341
0.093787
0.11723
0.093787
0.082064
0.058618
0.035171
0
0.011724
-0.023447
-0.07034
-0.058618
-0.011724
0.011724
0.10551
0.16413
0.17585
0.12896
0.082064
0.046894
0.035171
0.011724
0
0
0
-0.023447
-0.058618
-0.058618
-0.046894
-0.023447
-0.035171
-0.011724
0
0.011724
0.023447
0.023447
0.011724
0.011724
0.023447
0.011724
0.023447
0.058618
0.023447
0.011724
0.023447
0.035171
0
-0.07034
-0.082064
-0.07034
-0.082064
-0.082064
-0.10551
-0.10551
-0.093787
-0.035171
0.035171
0.093787
0.093787
0.093787
0.070341
0.070341
0.058618
0.035171
0.011724
0.023447
-0.011724
-0.07034
-0.14068
-0.1993
-0.1993
-0.23447
-0.22274
-0.25792
-0.29309
-0.23447
-0.17585
-0.22274
-0.21102
-0.22274
-0.21102
-0.17585
-0.14068
-0.11723
-0.07034
-0.046894
-0.023447
-0.011724
0.035171
0.023447
0.035171
0.011724
0
0
-0.023447
-0.07034
-0.07034
-0.07034
-0.058618
-0.058618
-0.07034
-0.058618
-0.023447
-0.023447
-0.046894
-0.046894
-0.058618
-0.082064
-0.07034
-0.082064
-0.07034
-0.058618
-0.046894
-0.046894
-0.035171
-0.023447
0.023447
0.035171
0.011724
0.023447
0.058618
0.082064
0.10551
0.046894
0.011724
0.035171
0.082064
0.082064
0.082064
0.035171
0.035171
0.023447
0.035171
0.070341
0.093787
0.14068
0.10551
0.058618
0.035171
0.046894
0.035171
0.023447
-0.023447
-0.035171
-0.046894
-0.058618
-0.11723
-0.1524
-0.14068
-0.12896
-0.14068
-0.14068
-0.11723
-0.11723
-0.16413
-0.1524
-0.17585
-0.25792
-0.22274
-0.16413
-0.1524
-0.11723
-0.093787
-0.12896
-0.14068
-0.082064
0
0.023447
-0.023447
-0.16413
-0.22274
0
0.058618
0.11723
0.093787
0.082064
0.082064
0.093787
0.10551
0.082064
0.070341
0.070341
0.058618
0.058618
0.058618
0.046894
0.046894
0.058618
0.035171
0.011724
0.011724
0.023447
0.011724
0.011724
0
0
-0.035171
-0.035171
0
-0.023447
-0.035171
-0.035171
-0.011724
-0.046894
-0.046894
-0.093787
-0.082064
-0.058618
-0.046894
-0.046894
-0.011724
-0.035171
-0.011724
0.046894
0
-0.082064
-0.07034
-0.082064
-0.082064
-0.082064
-0.11723
-0.1524
-0.1524
-0.1524
-0.12896
-0.093787
-0.07034
-0.058618
-0.058618
-0.058618
-0.046894
-0.058618
-0.082064
-0.07034
-0.07034
-0.093787
-0.093787
-0.11723
-0.12896
-0.11723
-0.10551
-0.082064
-0.046894
-0.035171
-0.046894
-0.046894
-0.035171
-0.023447
-0.035171
-0.035171
-0.035171
-0.058618
-0.046894
-0.023447
-0.046894
-0.046894
-0.023447
-0.046894
-0.12896
-0.1524
-0.1993
-0.1993
-0.14068
0
0.070341
0.011724
-0.011724
-0.046894
-0.07034
-0.035171
-0.058618
-0.058618
-0.058618
-0.07034
-0.07034
-0.082064
-0.10551
-0.082064
-0.058618
-0.058618
-0.046894
-0.046894
-0.046894
-0.046894
-0.023447
-0.035171
-0.082064
-0.10551
-0.058618
-0.07034
-0.058618
-0.058618
-0.058618
-0.07034
-0.082064
-0.07034
-0.07034
-0.058618
-0.046894
-0.035171
-0.046894
-0.058618
-0.058618
-0.046894
-0.046894
-0.058618
-0.046894
-0.046894
-0.07034
-0.082064
-0.035171
-0.046894
-0.058618
-0.10551
-0.11723
-0.10551
-0.093787
-0.082064
-0.035171
0.023447
-0.023447
-0.046894
-0.12896
-0.1524
-0.1993
-0.1993
-0.16413
-0.14068
-0.16413
-0.17585
-0.1993
-0.30481
-0.42204
-0.38687
-0.26964
-0.21102
-0.28136
-0.45721
-0.53928
-0.33998
-0.22274
-0.37515
-0.23447
-0.29309
-0.17585
-0.33998
-0.30481
-0.22274
-0.28136
-0.1524
0.082064
0.046894
-0.023447
-0.12896
-0.14068
-0.023447
-0.023447
0.046894
0.058618
0.011724
0.082064
0.16413
0.23447
0.25792
0.1524
-0.011724
0.035171
0.035171
-0.011724
-0.1524
-0.30481
-0.12896
-0.14068
0.12896
0.070341
0.10551
0.11723
0.11723
0.10551
0.11723
0.18758
0.16413
0.16413
0.14068
0.11723
0.10551
0.10551
0.070341
0.058618
0.046894
-0.011724
-0.11723
-0.14068
-0.12896
-0.093787
-0.023447
-0.093787
-0.16413
-0.058618
0.011724
0.035171
0.070341
0.046894
0.035171
0.070341
0
0.023447
0.16413
0.093787
0.082064
0.10551
0.14068
0.11723
0.10551
0.093787
0.10551
0.11723
0.11723
-0.12896
-0.12896
-0.11723
-0.10551
0
0.011724
0.070341
0.058618
-0.07034
-0.07034
-0.046894
0.093787
0.12896
0.12896
0.1524
0.1524
0.1524
0.21102
0.18758
0.11723
0.11723
0.082064
0.046894
-0.035171
-0.035171
0.023447
0.011724
0
0.035171
0.046894
0.11723
0.10551
0.10551
0.035171
0.023447
0.12896
0.17585
0.16413
0.21102
0.22274
0.23447
0.21102
0.17585
0.22274
0.23447
0.25792
0.22274
0.21102
0.1524
0.093787
0.058618
0.011724
-0.14068
-0.1524
-0.16413
-0.093787
-0.07034
-0.035171
0.011724
0.070341
0.14068
0.10551
0.023447
-0.023447
0.058618
0.082064
0.011724
0.023447
0.035171
0.082064
0.14068
0.18758
0.18758
0.16413
0.023447
-0.058618
-0.011724
0.046894
0.070341
0.046894
0.011724
-0.011724
-0.035171
-0.035171
-0.023447
-0.046894
-0.058618
-0.16413
-0.10551
-0.046894
-0.035171
-0.023447
-0.011724
0.035171
0.093787
0.082064
0.070341
0.058618
0.023447
0.011724
-0.011724
-0.082064
-0.17585
-0.12896
-0.035171
0.046894
0.070341
0.070341
0.046894
0.070341
0.082064
0.11723
0.14068
0.16413
0.16413
0.16413
0.1524
0.11723
0.011724
-0.046894
0.035171
0.058618
-0.011724
-0.11723
-0.10551
-0.035171
-0.023447
-0.011724
0.035171
0.035171
0.082064
0.082064
0.070341
0.023447
0.035171
0.046894
0.046894
0.12896
0.1524
0.10551
0.10551
0.093787
0.082064
0.10551
0.11723
0.070341
0.023447
0.011724
-0.046894
-0.082064
-0.10551
-0.058618
-0.093787
-0.035171
-0.023447
0.035171
0.035171
0.046894
0.058618
0.093787
0.12896
0.10551
0.10551
0.093787
0.11723
0.10551
0.18758
0.22274
0.1993
0.23447
0.18758
0.11723
0.14068
0.21102
0.1993
0.18758
0.18758
0.18758
0.22274
0.18758
0.1993
0.21102
0.17585
0.14068
0.16413
0.11723
0.082064
0.070341
0.035171
0.046894
0.058618
0.023447
0
0.011724
0.093787
0.035171
0
0.046894
0.093787
0.12896
0.082064
0.070341
0.11723
0.093787
0.058618
0.058618
0.058618
0.082064
0.10551
0.12896
0.11723
0.058618
0.035171
0.023447
-0.011724
-0.058618
-0.10551
-0.12896
-0.07034
-0.10551
-0.10551
-0.14068
-0.14068
-0.17585
-0.28136
-0.30481
-0.30481
-0.1524
-0.1993
-0.093787
-0.023447
-0.035171
-0.046894
-0.28136
-0.43377
-0.22274
-0.082064
0.023447
-0.023447
-0.058618
-0.046894
-0.035171
-0.011724
-0.011724
-0.011724
-0.023447
0
0.035171
0.035171
0.011724
-0.035171
-0.058618
-0.011724
0.093787
0.12896
0.18758
0.23447
0.26964
0.26964
0.26964
0.31653
0.1524
0.093787
0.011724
-0.11723
-0.36343
-0.50411
-0.78547
-0.56273
-0.89098
-0.17585
0.082064
0.12896
0.10551
0.082064
-0.17585
-0.17585
-0.011724
-0.058618
-0.035171
-0.1993
-0.23447
-0.082064
-0.046894
-0.093787
-0.058618
0.082064
-0.035171
-0.093787
-0.023447
0
0
0
0.035171
0.093787
0.12896
0.035171
0.1524
0.31653
0.23447
0.29309
0.24619
0.1993
0.12896
0.046894
0.035171
0.011724
0.011724
0.035171
0.058618
0.070341
0.035171
-0.011724
-0.011724
0
0.023447
0.023447
0.023447
-0.011724
-0.011724
-0.023447
-0.035171
-0.07034
-0.046894
-0.011724
0.058618
0.082064
0.082064
0.011724
-0.023447
-0.023447
-0.023447
-0.035171
-0.07034
-0.082064
-0.046894
-0.046894
-0.10551
-0.10551
-0.023447
0.011724
-0.11723
-0.12896
-0.035171
-0.035171
0.011724
0.011724
0.035171
-0.023447
-0.082064
-0.035171
-0.035171
-0.046894
-0.046894
-0.046894
-0.023447
-0.023447
-0.046894
-0.035171
-0.046894
-0.023447
-0.023447
-0.058618
-0.11723
-0.082064
-0.046894
-0.011724
-0.023447
-0.058618
-0.046894
-0.07034
-0.07034
-0.058618
-0.093787
-0.07034
0.011724
0.023447
-0.011724
-0.035171
-0.07034
-0.12896
-0.14068
-0.1524
-0.16413
-0.16413
-0.17585
-0.21102
-0.1993
-0.1993
-0.1993
-0.21102
-0.21102
-0.16413
-0.11723
-0.1993
-0.24619
-0.18758
-0.11723
-0.07034
-0.035171
0
-0.011724
-0.046894
-0.011724
-0.023447
-0.035171
-0.035171
-0.07034
-0.07034
-0.07034
-0.046894
-0.035171
-0.011724
-0.023447
-0.035171
0.011724
0.011724
0.023447
0.058618
0.082064
0.14068
0.1524
0.11723
0.082064
0.023447
0
-0.058618
-0.082064
-0.10551
-0.16413
-0.1524
-0.14068
-0.16413
-0.1524
-0.082064
-0.058618
-0.058618
0
0.058618
0.10551
0.12896
0.11723
0.12896
0.14068
0.16413
0.1524
0.16413
0.1524
0.058618
0.023447
0.11723
0.16413
0.10551
0.023447
0.10551
0.14068
0.1524
0.12896
0.070341
0
-0.046894
-0.023447
0
0.023447
0.023447
0.070341
-0.023447
-0.046894
-0.046894
-0.093787
-0.14068
-0.12896
-0.16413
-0.1993
-0.21102
-0.23447
-0.21102
-0.1993
-0.21102
-0.17585
-0.24619
-0.37515
-0.41032
-0.3986
-0.22274
-0.12896
-0.093787
-0.093787
-0.10551
-0.07034
0.011724
0.082064
0.011724
0.011724
0.023447
0.035171
0.058618
0.058618
0.070341
0.070341
0.046894
0.035171
0.035171
0.070341
0.093787
0.046894
0.046894
0.058618
0.023447
0.023447
0.070341
0.093787
0.11723
0.14068
0.16413
0.11723
0.10551
0.046894
-0.046894
-0.035171
0.035171
0.082064
0.046894
-0.011724
-0.035171
-0.011724
0.011724
-0.011724
-0.035171
0.023447
0.082064
0.12896
0.14068
0.18758
0.1993
0.17585
0.1524
0.11723
0.11723
0.023447
-0.011724
0.023447
0.058618
0.035171
0.082064
0.10551
0.093787
0.070341
0.070341
0.023447
-0.023447
-0.035171
-0.07034
-0.12896
-0.11723
-0.058618
-0.011724
-0.07034
-0.16413
-0.17585
-0.10551
-0.046894
-0.023447
-0.082064
-0.046894
0.058618
0.10551
0.16413
0.17585
0.18758
0.16413
0.14068
0.082064
0.011724
-0.07034
-0.082064
-0.14068
-0.11723
-0.046894
-0.023447
-0.011724
0
0
-0.023447
-0.12896
-0.12896
-0.23447
-0.16413
-0.10551
0
-0.023447
-0.07034
-0.07034
-0.035171
0.046894
0.12896
0.17585
0.11723
0.058618
-0.023447
-0.10551
-0.12896
-0.11723
-0.12896
-0.16413
-0.093787
-0.023447
0.082064
0.21102
0.25792
0.26964
0.32826
0.26964
0.16413
0.093787
0.046894
0.046894
-0.058618
-0.10551
-0.07034
-0.07034
-0.046894
-0.046894
-0.058618
-0.046894
-0.046894
-0.058618
-0.058618
-0.11723
-0.14068
-0.18758
-0.18758
-0.11723
-0.17585
-0.18758
-0.17585
-0.16413
-0.17585
-0.23447
-0.23447
-0.23447
-0.23447
-0.21102
-0.1993
-0.17585
-0.18758
-0.17585
-0.16413
-0.12896
-0.07034
-0.035171
0.023447
0.058618
0.082064
0.082064
0.10551
0.093787
0.023447
-0.035171
-0.058618
-0.082064
-0.14068
-0.16413
-0.16413
-0.14068
-0.14068
-0.14068
-0.11723
-0.10551
-0.082064
-0.046894
-0.023447
-0.023447
-0.058618
-0.011724
0.046894
0.035171
-0.011724
-0.023447
-0.011724
0.082064
0.10551
0
-0.12896
-0.18758
-0.11723
0.011724
0.058618
0.023447
0.023447
0.046894
0.046894
0.058618
0.070341
0.046894
0.011724
-0.011724
-0.023447
-0.046894
-0.07034
-0.058618
-0.058618
0
-0.011724
-0.023447
-0.046894
-0.046894
-0.07034
-0.07034
-0.082064
-0.058618
-0.07034
-0.082064
-0.093787
-0.10551
-0.10551
-0.12896
-0.10551
-0.093787
-0.093787
-0.10551
-0.035171
-0.011724
-0.046894
0.035171
0.046894
0
-0.023447
-0.07034
-0.10551
0
0.082064
0.046894
0.011724
-0.035171
-0.035171
-0.023447
0.011724
0.070341
0.070341
0.058618
0.046894
0.070341
0.058618
0.070341
0.11723
0.011724
-0.023447
0.011724
-0.046894
-0.07034
-0.093787
-0.093787
-0.11723
-0.10551
-0.12896
-0.12896
-0.11723
-0.11723
-0.082064
-0.093787
-0.07034
-0.035171
-0.023447
-0.058618
-0.035171
-0.035171
-0.035171
-0.093787
-0.10551
-0.07034
-0.058618
-0.035171
0
0.023447
-0.058618
-0.14068
-0.16413
-0.1993
-0.29309
-0.32826
-0.023447
0.18758
0.16413
0.14068
0.12896
0.1524
0.1993
0.17585
0.17585
0.12896
0.046894
-0.093787
-0.023447
0.17585
0.24619
0.24619
0.22274
0.17585
0.14068
0.10551
0.058618
-0.082064
-0.082064
-0.046894
0.058618
0.046894
-0.035171
-0.11723
-0.14068
-0.10551
-0.11723
-0.07034
-0.046894
-0.035171
-0.023447
-0.011724
-0.011724
0.046894
0.082064
0.11723
0.10551
0.093787
0.14068
0.093787
0.070341
0.070341
0.070341
0.046894
0.046894
0.035171
0.023447
0.046894
0.058618
0.093787
0.10551
0.082064
0.070341
0.058618
0.023447
0.046894
0.070341
0.1524
0.22274
0.32826
0.33998
0.33998
0.29309
0.21102
0.1993
0.16413
0.093787
0.046894
0
-0.11723
-0.1993
-0.17585
-0.12896
-0.10551
-0.16413
-0.07034
-0.046894
-0.12896
-0.17585
-0.14068
-0.1524
-0.14068
-0.11723
-0.093787
-0.10551
-0.10551
-0.082064
-0.093787
-0.1524
-0.14068
-0.082064
-0.10551
-0.12896
-0.16413
-0.1524
-0.14068
-0.14068
-0.12896
-0.11723
-0.14068
-0.1524
-0.17585
-0.24619
-0.24619
-0.1993
-0.16413
-0.16413
-0.10551
-0.058618
-0.046894
-0.011724
-0.023447
-0.023447
0
0
-0.011724
-0.011724
-0.011724
0.035171
0.035171
0
-0.035171
-0.023447
-0.011724
0
0.046894
0.035171
0.011724
-0.011724
-0.011724
-0.023447
-0.035171
-0.07034
-0.11723
-0.14068
-0.14068
-0.11723
-0.093787
-0.082064
-0.058618
-0.058618
-0.058618
-0.046894
-0.011724
-0.023447
-0.093787
-0.1524
-0.17585
-0.31653
-0.24619
-0.23447
-0.1993
-0.16413
-0.10551
-0.023447
0.035171
0.046894
-0.023447
-0.035171
-0.035171
-0.07034
-0.082064
-0.093787
-0.093787
-0.093787
-0.10551
-0.10551
-0.093787
-0.07034
-0.07034
-0.07034
-0.07034
-0.082064
-0.10551
-0.058618
-0.035171
-0.035171
-0.07034
-0.093787
-0.058618
0
-0.082064
-0.11723
-0.011724
0.023447
-0.023447
-0.046894
-0.046894
-0.058618
-0.035171
-0.011724
-0.058618
-0.058618
-0.058618
-0.046894
0.023447
0.058618
0.046894
0.046894
0.046894
0.058618
0.023447
-0.011724
0
-0.046894
-0.10551
-0.1524
-0.1524
-0.16413
-0.14068
-0.21102
-0.1993
-0.14068
-0.22274
-0.17585
-0.12896
-0.093787
-0.093787
-0.14068
-0.14068
-0.093787
-0.082064
-0.046894
-0.011724
0.011724
0.023447
0.023447
0.070341
0.1524
0.12896
0.16413
0.14068
0.093787
0.082064
0.070341
0.070341
0.070341
0.046894
0.10551
0.046894
0.070341
-0.011724
0.011724
0.035171
0.023447
-0.023447
-0.023447
-0.011724
-0.011724
-0.011724
-0.011724
0.023447
0.093787
0.14068
0.12896
0.093787
0.11723
0.1524
0.011724
-0.16413
-0.1993
-0.22274
-0.17585
-0.14068
-0.058618
-0.011724
0.023447
0.035171
0
-0.058618
-0.046894
0.023447
0
-0.023447
-0.035171
0.011724
0.035171
0.082064
0.093787
0.082064
0.093787
0.082064
0.046894
0.046894
0.035171
0.058618
0.082064
0.046894
0.058618
0.035171
0.058618
0.058618
0.070341
0.082064
0.070341
0.046894
0.011724
-0.058618
-0.11723
-0.1524
-0.058618
0.082064
0.16413
0.17585
0.14068
0.082064
0.035171
0.023447
0.070341
0.093787
0.11723
0.12896
0.082064
-0.035171
-0.18758
-0.16413
-0.011724
0
0.023447
0.011724
-0.011724
-0.035171
-0.093787
-0.16413
-0.22274
-0.10551
-0.035171
-0.023447
-0.046894
-0.093787
-0.14068
-0.18758
-0.25792
-0.32826
-0.29309
-0.14068
-0.17585
-0.1524
-0.11723
-0.082064
0.023447
-0.046894
-0.10551
-0.18758
-0.14068
-0.023447
0.035171
0.093787
0.093787
0.093787
0.070341
0.082064
0.058618
0.023447
-0.1524
-0.058618
-0.035171
0.011724
-0.11723
-0.25792
-0.36343
-0.058618
-0.011724
-0.046894
0.035171
0
-0.046894
-0.011724
-0.023447
-0.093787
-0.17585
-0.1993
-0.18758
-0.16413
-0.14068
-0.10551
-0.058618
-0.023447
-0.011724
0
0.035171
0.082064
0.11723
0.093787
0.070341
0.070341
0.093787
0.10551
0.11723
0.12896
0.12896
0.16413
0.1993
0.21102
0.18758
0.17585
0.23447
0.21102
0.23447
0.30481
0.33998
0.36343
0.37515
0.36343
0.36343
0.32826
0.26964
0.23447
0.22274
0.21102
0.1993
0.1524
0.11723
0.10551
0.10551
0.10551
0.093787
0.11723
0.070341
0.035171
0.058618
0.058618
0
-0.011724
0
-0.011724
-0.023447
0.011724
0.058618
0.058618
0.035171
0.011724
-0.011724
-0.035171
-0.07034
-0.058618
-0.082064
-0.12896
-0.14068
-0.21102
-0.3986
-0.29309
-0.18758
-0.10551
-0.17585
-0.31653
-0.28136
-0.1993
-0.10551
-0.093787
-0.082064
-0.046894
-0.046894
-0.058618
-0.11723
-0.17585
-0.11723
-0.011724
-0.035171
-0.082064
-0.058618
-0.046894
-0.023447
-0.093787
-0.058618
-0.07034
0.11723
0.1524
0.12896
0.14068
0.17585
0.18758
0.21102
0.1993
0.17585
0.1993
0.1993
0.16413
0.12896
0.11723
0.093787
0.070341
0.058618
0.046894
0.082064
0.12896
0.011724
0.023447
0.093787
0.16413
0.1524
0.17585
0.11723
0.082064
0.058618
0.023447
0.011724
-0.023447
-0.011724
0
0
-0.011724
0.023447
0
-0.023447
-0.023447
-0.011724
0.023447
0.035171
0.046894
0.070341
0.035171
-0.023447
-0.011724
0.046894
0.070341
0.070341
0.058618
0.082064
0.070341
0.082064
0.070341
0.058618
0.082064
-0.023447
-0.093787
-0.1524
-0.16413
-0.1524
-0.10551
-0.093787
-0.082064
-0.035171
0.035171
0.070341
0.11723
0.10551
0.11723
0.1993
0.23447
0.18758
0.14068
0.10551
0.082064
0.10551
0.12896
0.070341
0.011724
-0.035171
-0.058618
-0.082064
-0.046894
-0.046894
-0.011724
0
-0.011724
0.035171
0.070341
0.058618
0.082064
0.070341
0.046894
0.046894
0.011724
-0.035171
-0.07034
-0.07034
-0.046894
-0.035171
0
-0.011724
-0.046894
-0.082064
-0.082064
-0.10551
-0.1524
-0.1524
-0.082064
-0.035171
-0.046894
-0.046894
-0.046894
-0.046894
-0.035171
-0.11723
-0.16413
-0.17585
-0.18758
-0.17585
-0.17585
-0.22274
-0.24619
-0.1993
-0.16413
-0.14068
-0.12896
-0.11723
-0.16413
-0.17585
-0.1524
-0.1524
-0.11723
-0.10551
-0.10551
-0.10551
-0.11723
-0.093787
-0.07034
-0.07034
-0.058618
0.011724
0.046894
0.070341
0.046894
0.070341
0.058618
0.023447
0.058618
0.035171
0.011724
0.011724
0.035171
0.011724
0.046894
0.070341
0.093787
0.093787
0.082064
0.082064
0.070341
0.046894
-0.011724
0
0.011724
0.023447
0.035171
-0.058618
-0.11723
-0.11723
-0.12896
-0.14068
-0.16413
-0.1993
-0.18758
-0.16413
-0.14068
-0.12896
-0.12896
-0.14068
-0.12896
-0.11723
-0.046894
-0.023447
0.011724
0.023447
-0.011724
-0.035171
0.011724
0.035171
0.058618
0.035171
-0.023447
-0.023447
0
0.035171
0.035171
0.011724
-0.011724
-0.035171
-0.046894
-0.058618
-0.035171
-0.023447
0.011724
0.046894
0.070341
0.023447
0
-0.011724
0
-0.011724
-0.023447
0
-0.011724
-0.023447
-0.035171
-0.035171
-0.035171
-0.023447
-0.011724
0.011724
0.023447
0.035171
0.035171
0.011724
0.023447
0.046894
0.12896
0.1524
0.17585
0.16413
0.1993
0.16413
0.14068
0.11723
0.10551
0.14068
0.18758
0.18758
0.1524
0.12896
0.058618
0.035171
0.046894
0.011724
0
0.011724
0.011724
0.011724
0.046894
0.058618
0.011724
0.011724
0.035171
0.10551
0.10551
0.082064
0.10551
0.14068
0.093787
0.035171
-0.035171
-0.023447
-0.046894
-0.07034
-0.082064
-0.082064
-0.035171
-0.011724
0.011724
0.035171
0.035171
0.070341
0.070341
0.093787
0.11723
0.1524
0.058618
0.070341
0.093787
0.082064
0.082064
0.082064
0.035171
0.093787
0.058618
0.035171
0.035171
0.046894
0.070341
0.070341
0.035171
0.023447
0.023447
0.058618
0.058618
0.058618
0.093787
0.11723
0.11723
0.070341
0.035171
0.011724
-0.011724
0.011724
0.035171
0.16413
0.22274
0.21102
0.18758
0.14068
0.10551
0.082064
0.070341
0.035171
0.023447
0
-0.011724
-0.07034
-0.046894
0
0.023447
0.035171
0.011724
0
0.011724
-0.023447
-0.046894
-0.082064
-0.1524
-0.1993
-0.14068
-0.082064
-0.12896
-0.16413
-0.14068
-0.11723
-0.12896
-0.11723
-0.12896
-0.14068
-0.10551
-0.093787
-0.082064
-0.07034
-0.046894
-0.023447
-0.011724
-0.011724
-0.011724
-0.023447
-0.023447
-0.011724
0
0.011724
-0.011724
-0.046894
-0.035171
-0.046894
-0.10551
-0.12896
-0.14068
-0.14068
-0.11723
-0.058618
-0.035171
-0.035171
-0.023447
-0.011724
-0.023447
0.011724
0.046894
0.082064
0.093787
0.070341
0.058618
0.046894
-0.011724
-0.023447
-0.011724
0
0.023447
0.011724
-0.023447
-0.058618
-0.11723
-0.10551
-0.10551
-0.093787
-0.093787
-0.082064
-0.035171
0.023447
0.046894
0.046894
0.035171
0
-0.011724
-0.082064
-0.14068
-0.17585
-0.14068
-0.10551
-0.093787
-0.11723
-0.12896
-0.11723
-0.058618
-0.046894
-0.046894
-0.023447
0.023447
0.082064
0.12896
0.14068
0.082064
0.011724
0.023447
0.046894
0.058618
0.046894
0
-0.058618
-0.07034
-0.07034
-0.11723
-0.11723
-0.11723
-0.10551
-0.093787
-0.035171
0.023447
0
-0.023447
-0.046894
-0.046894
-0.023447
0.011724
0.011724
0
-0.011724
-0.011724
0
-0.011724
-0.035171
-0.058618
-0.093787
-0.082064
-0.082064
-0.093787
-0.093787
-0.082064
-0.082064
-0.07034
-0.023447
-0.023447
0.023447
0
-0.046894
-0.093787
-0.093787
-0.058618
-0.058618
-0.058618
-0.035171
0
0.011724
0.046894
0.011724
-0.046894
-0.093787
-0.10551
-0.082064
-0.023447
0.023447
0.023447
0.046894
0.082064
0.058618
0.046894
0.035171
0.035171
0.046894
0.070341
0.093787
0.093787
0.10551
0.10551
0.093787
0.070341
0.070341
0.058618
0.035171
0
-0.011724
-0.023447
-0.035171
-0.035171
0.023447
0.011724
0.046894
0.082064
0.035171
0.011724
-0.035171
-0.035171
-0.10551
-0.17585
-0.25792
-0.24619
-0.17585
-0.11723
-0.046894
-0.011724
0.035171
0.035171
0.058618
0.10551
0.058618
0.058618
0.058618
0.082064
0.046894
0.035171
0.070341
0.093787
0.082064
0.093787
0.12896
0.16413
0.22274
0.21102
0.1993
0.18758
0.1993
0.17585
0.1524
0.082064
0.046894
0.023447
-0.035171
-0.058618
-0.058618
0
0.011724
-0.011724
-0.046894
-0.046894
0
0.12896
0.1524
0.14068
0.11723
0.082064
0.058618
0.058618
0.082064
-0.011724
-0.046894
-0.046894
-0.058618
-0.082064
-0.093787
-0.07034
-0.07034
-0.058618
-0.10551
-0.1524
-0.16413
-0.14068
-0.12896
-0.14068
-0.14068
-0.12896
-0.10551
-0.046894
-0.011724
-0.035171
-0.046894
-0.023447
-0.023447
-0.023447
-0.035171
-0.07034
-0.058618
-0.046894
-0.011724
-0.011724
-0.058618
-0.093787
-0.10551
-0.07034
-0.11723
-0.12896
-0.093787
-0.093787
-0.082064
-0.058618
-0.035171
-0.023447
-0.011724
-0.011724
-0.011724
0
-0.011724
-0.011724
-0.023447
-0.011724
-0.011724
-0.035171
-0.058618
-0.058618
-0.046894
-0.035171
-0.023447
0
0.035171
0.023447
-0.035171
-0.035171
-0.046894
-0.082064
-0.10551
-0.046894
-0.011724
0.046894
0.011724
0.011724
-0.011724
-0.011724
0.011724
0.023447
0.011724
0.070341
0.058618
0.046894
0.046894
0.082064
0.070341
0.082064
0.082064
0.082064
0.070341
0.058618
0.058618
0.023447
0
0.011724
0.023447
-0.011724
-0.058618
-0.011724
-0.011724
0
0.011724
-0.035171
-0.058618
-0.082064
-0.058618
-0.023447
0.046894
0.093787
0
-0.011724
-0.011724
-0.011724
0
0.011724
0
0.023447
0.082064
0.093787
0.11723
0.12896
0.10551
0.093787
0.082064
0.035171
0.035171
0.046894
0.023447
0.023447
0.058618
0.046894
0.035171
0.011724
0
0.023447
0.035171
0
-0.046894
-0.011724
-0.023447
-0.093787
-0.10551
-0.058618
-0.082064
-0.07034
-0.058618
-0.058618
-0.011724
0.046894
0.082064
0.10551
0.082064
0.046894
-0.011724
-0.035171
0
-0.035171
-0.07034
-0.058618
-0.035171
0.011724
0.035171
0.023447
0.011724
0
0
-0.011724
-0.011724
0.023447
0.023447
-0.046894
-0.058618
-0.023447
-0.011724
0
0.035171
0.035171
0
-0.023447
-0.023447
-0.046894
-0.035171
-0.058618
-0.10551
-0.14068
-0.14068
-0.12896
-0.12896
-0.12896
-0.07034
-0.023447
0.023447
0.058618
0.070341
0.082064
0.14068
0.12896
0.058618
0.058618
0.035171
0.070341
-0.07034
-0.058618
-0.058618
-0.058618
-0.023447
0.011724
0.046894
0.070341
0.10551
0.093787
0.093787
0.10551
0.082064
0.058618
0.070341
0.035171
0.035171
0.058618
0.058618
0.093787
0.11723
0.082064
0.070341
0.058618
0.070341
0.058618
0.046894
-0.011724
-0.023447
-0.023447
-0.023447
0
0.011724
0
0
-0.011724
-0.011724
-0.046894
-0.058618
-0.046894
-0.011724
0.082064
0.14068
0.1524
0.12896
0.1524
0.1993
0.12896
0.093787
0.035171
0.011724
-0.035171
-0.011724
-0.035171
-0.023447
-0.035171
-0.058618
-0.058618
-0.058618
-0.07034
-0.093787
-0.11723
-0.093787
-0.093787
-0.10551
-0.023447
-0.11723
-0.17585
-0.17585
-0.14068
-0.14068
-0.12896
-0.07034
-0.023447
-0.035171
-0.035171
-0.035171
-0.011724
-0.093787
-0.07034
-0.058618
-0.035171
-0.023447
-0.035171
-0.07034
-0.093787
-0.082064
-0.046894
0
-0.011724
-0.058618
-0.07034
-0.058618
-0.035171
-0.023447
-0.023447
-0.011724
-0.035171
-0.046894
-0.11723
-0.14068
-0.11723
-0.12896
-0.12896
-0.11723
-0.11723
-0.11723
-0.093787
-0.093787
-0.14068
-0.1993
-0.17585
-0.17585
-0.14068
-0.10551
-0.14068
-0.1524
-0.14068
-0.11723
-0.093787
-0.093787
-0.10551
-0.10551
-0.11723
-0.11723
-0.10551
-0.093787
-0.14068
-0.082064
-0.082064
-0.023447
-0.046894
-0.046894
-0.046894
-0.046894
-0.058618
-0.046894
-0.035171
-0.011724
-0.011724
-0.023447
0.035171
0.035171
0.035171
0.023447
0.011724
0.011724
0.011724
0
-0.011724
0
-0.046894
-0.035171
-0.035171
-0.046894
-0.011724
-0.011724
-0.046894
-0.046894
-0.046894
-0.023447
-0.011724
0
0.011724
0.023447
0.046894
0.011724
-0.035171
-0.035171
-0.011724
0
0.011724
0.023447
0.058618
0.058618
0.082064
0.070341
0.046894
-0.011724
-0.058618
-0.07034
-0.07034
-0.046894
-0.035171
-0.023447
-0.011724
0
0.011724
-0.035171
-0.011724
0.011724
0.046894
0.046894
0.035171
0.011724
-0.046894
-0.046894
-0.035171
-0.023447
0.011724
0.011724
0.023447
0
0.035171
0.023447
-0.035171
-0.046894
-0.058618
-0.035171
-0.035171
-0.046894
-0.082064
-0.082064
-0.093787
-0.093787
-0.12896
-0.14068
-0.12896
-0.1524
-0.14068
-0.10551
-0.093787
-0.082064
-0.082064
-0.07034
-0.12896
-0.1524
-0.1524
-0.16413
-0.18758
-0.17585
-0.12896
-0.07034
-0.023447
-0.011724
0.023447
0.011724
0.011724
-0.011724
-0.035171
-0.10551
-0.16413
-0.12896
-0.11723
-0.093787
-0.058618
-0.058618
-0.023447
0
0
0.035171
0.10551
0.12896
0.035171
-0.011724
-0.011724
0
0.023447
0.046894
0.058618
0.093787
0.070341
0.046894
0.046894
0.058618
0.046894
0.070341
0.035171
0.023447
0.046894
0.070341
0.082064
0.035171
0.011724
-0.011724
-0.035171
-0.035171
0.011724
-0.011724
-0.058618
-0.035171
0.093787
0.12896
0.16413
0.093787
-0.011724
-0.058618
-0.035171
-0.035171
-0.046894
-0.023447
-0.023447
-0.07034
-0.07034
-0.07034
-0.14068
-0.16413
-0.16413
-0.16413
-0.17585
-0.18758
-0.17585
-0.17585
-0.21102
-0.1993
-0.18758
-0.16413
-0.17585
-0.1993
-0.1993
-0.18758
-0.18758
-0.18758
-0.17585
-0.18758
-0.22274
-0.21102
-0.1993
-0.1993
-0.22274
-0.23447
-0.22274
-0.21102
-0.21102
-0.22274
-0.21102
-0.1993
-0.1993
-0.17585
-0.18758
-0.1524
-0.11723
-0.12896
-0.14068
-0.11723
-0.12896
-0.1524
-0.10551
-0.10551
-0.093787
-0.058618
-0.058618
-0.058618
-0.035171
-0.023447
-0.035171
-0.023447
-0.07034
-0.093787
-0.07034
-0.07034
-0.10551
-0.11723
-0.10551
-0.093787
-0.10551
-0.12896
-0.12896
-0.11723
-0.12896
-0.14068
-0.12896
-0.16413
-0.16413
-0.17585
-0.17585
-0.18758
-0.16413
-0.12896
-0.11723
-0.10551
-0.082064
-0.082064
-0.058618
-0.046894
-0.058618
-0.07034
-0.10551
-0.11723
-0.10551
-0.12896
-0.10551
-0.11723
-0.11723
-0.11723
-0.11723
-0.093787
-0.093787
-0.10551
-0.11723
-0.12896
-0.093787
-0.082064
-0.093787
-0.14068
-0.1524
-0.1524
-0.14068
-0.1524
-0.14068
-0.10551
-0.07034
-0.035171
-0.035171
-0.035171
-0.023447
-0.011724
-0.011724
-0.035171
-0.046894
-0.023447
-0.035171
-0.023447
-0.082064
-0.058618
-0.023447
-0.011724
0
0.023447
0.035171
0.023447
0.023447
0
-0.023447
-0.058618
-0.046894
-0.046894
-0.035171
-0.046894
-0.046894
-0.046894
-0.023447
-0.011724
0
-0.011724
0
-0.035171
-0.035171
-0.011724
0.011724
0.023447
0.011724
0
0.011724
-0.046894
-0.011724
-0.023447
-0.058618
-0.11723
-0.093787
-0.10551
-0.093787
-0.058618
-0.058618
-0.082064
-0.093787
-0.046894
-0.046894
-0.046894
-0.035171
-0.011724
0.011724
-0.011724
-0.011724
0.011724
0.023447
0.023447
0.023447
0.011724
-0.011724
-0.011724
-0.035171
-0.07034
-0.14068
-0.17585
-0.21102
-0.16413
-0.11723
-0.093787
-0.11723
-0.12896
-0.11723
-0.11723
-0.10551
-0.093787
-0.10551
-0.18758
-0.1993
-0.082064
0.070341
0.12896
0.10551
0.10551
0.046894
-0.093787
0.046894
0.12896
0.093787
0.046894
0.058618
0.093787
0.14068
0.10551
0.070341
0.093787
0.10551
0.082064
0.070341
0.058618
0.023447
-0.023447
-0.035171
0.011724
0.082064
0.12896
0.14068
0.11723
0.082064
0.10551
0.082064
-0.011724
-0.14068
-0.093787
-0.093787
-0.093787
-0.058618
-0.082064
-0.07034
-0.058618
-0.058618
-0.10551
-0.16413
-0.18758
-0.17585
-0.16413
-0.1524
-0.1524
-0.14068
-0.12896
-0.14068
-0.14068
-0.12896
-0.12896
-0.12896
-0.11723
-0.082064
-0.07034
-0.046894
-0.011724
0.011724
0
-0.011724
-0.011724
-0.011724
-0.035171
-0.035171
-0.035171
-0.035171
-0.011724
0
0
-0.035171
-0.058618
-0.058618
-0.07034
-0.082064
-0.093787
-0.093787
-0.093787
-0.093787
-0.058618
-0.07034
-0.10551
-0.11723
-0.082064
-0.023447
-0.011724
-0.011724
-0.023447
-0.058618
-0.082064
-0.07034
-0.058618
-0.046894
-0.023447
0.011724
0.023447
0.035171
0.046894
0.058618
0.046894
0.082064
0.11723
0.11723
0.093787
0.070341
0.058618
0.058618
0.070341
0.070341
0.082064
0.082064
0.10551
0.10551
0.093787
0.093787
0.10551
0.10551
0.10551
0.070341
0.082064
0.11723
0.11723
0.12896
0.14068
0.17585
0.18758
0.1524
0.1524
0.14068
0.16413
0.21102
0.21102
0.21102
0.22274
0.24619
0.18758
0.12896
0.12896
0.082064
0.046894
0.011724
0
-0.011724
-0.023447
0.023447
0.035171
-0.046894
0
0
0.011724
0
-0.023447
-0.046894
-0.046894
-0.035171
-0.035171
-0.058618
-0.058618
-0.093787
-0.082064
-0.093787
-0.093787
-0.07034
-0.11723
-0.12896
-0.093787
-0.07034
-0.082064
-0.07034
-0.093787
-0.10551
-0.07034
-0.035171
-0.011724
-0.035171
-0.082064
-0.093787
-0.10551
-0.10551
-0.058618
-0.07034
-0.07034
-0.058618
-0.011724
0.011724
0.023447
0.035171
0.046894
0.035171
0.035171
0.046894
0.023447
0.035171
0.070341
0.070341
0.035171
0.070341
0.11723
0.14068
0.16413
0.17585
0.1993
0.18758
0.17585
0.16413
0.1524
0.12896
0.058618
0
0
0
0
0.011724
0.011724
0.023447
0.023447
0.023447
0.023447
0.035171
0.023447
0.035171
0.035171
0.046894
0.046894
0.058618
0.046894
0.058618
0.023447
-0.023447
-0.046894
-0.046894
-0.035171
0.011724
-0.023447
-0.011724
-0.035171
0
0.035171
0.035171
0.023447
0.058618
0.058618
0.093787
0.070341
0.10551
0.12896
0.17585
0.26964
0.3517
0.3517
0.38687
0.38687
0.32826
0.29309
0.24619
0.17585
0.12896
0.12896
0.058618
0.046894
0.046894
0.035171
0.046894
0.058618
0.082064
0.035171
0.011724
-0.011724
-0.035171
-0.035171
0.011724
-0.011724
-0.011724
0.011724
0.011724
0.035171
0.058618
0.082064
0.023447
0.046894
0.046894
0
0.011724
0
0.035171
0.011724
0.023447
0.023447
0.058618
0.17585
0.18758
0.16413
0.11723
0.093787
0.093787
0.11723
0.12896
0.11723
0.093787
0.093787
0.082064
0.070341
0.023447
0.011724
0
-0.011724
0
0
0.070341
0.082064
-0.058618
-0.011724
0.011724
-0.023447
0
-0.058618
-0.07034
-0.082064
-0.058618
-0.023447
-0.023447
-0.046894
-0.035171
-0.023447
-0.011724
0.023447
0
0.011724
0
0
0
-0.023447
0.023447
-0.046894
-0.07034
-0.07034
-0.082064
-0.082064
-0.035171
-0.046894
-0.082064
-0.07034
-0.082064
-0.07034
-0.023447
-0.011724
-0.035171
-0.011724
-0.023447
-0.023447
0
-0.011724
0.011724
-0.023447
0.023447
0.058618
0.082064
0.082064
0.082064
0.058618
0.023447
0.035171
0.046894
0.058618
0.035171
0.070341
0.046894
0.058618
0.082064
0.058618
0.035171
0.046894
0
-0.023447
-0.046894
-0.035171
-0.023447
-0.011724
-0.046894
-0.046894
-0.035171
0
0.070341
0.070341
0.082064
0.070341
0.058618
0.023447
0
0
0
-0.023447
-0.046894
-0.046894
-0.035171
-0.023447
0.011724
-0.011724
-0.011724
-0.023447
-0.023447
-0.058618
-0.035171
-0.035171
-0.035171
-0.011724
-0.023447
-0.023447
-0.035171
-0.058618
-0.046894
-0.011724
0.011724
0
0.011724
0.070341
0.14068
0.1993
0.24619
0.25792
0.23447
0.17585
0.14068
0.093787
0.023447
-0.011724
-0.011724
0.023447
0.046894
0.058618
0.058618
0.011724
0.035171
0.070341
0.093787
0.10551
0.070341
0.070341
0.082064
0.082064
0.058618
0.058618
0.058618
0.035171
0.046894
0.070341
0.082064
0.093787
0.093787
0.082064
0.12896
0.11723
0.10551
0.11723
0.14068
0.16413
0.12896
0.082064
0.070341
0.093787
0.10551
0.12896
0.10551
0.070341
0.16413
0.24619
0.25792
0.24619
0.21102
0.16413
0.14068
0.093787
0.046894
0.035171
0.011724
-0.011724
-0.046894
-0.058618
-0.07034
-0.07034
-0.082064
-0.093787
-0.093787
-0.058618
-0.035171
-0.046894
-0.058618
-0.058618
-0.023447
0
0.011724
0.046894
0.046894
0.023447
-0.011724
-0.035171
-0.046894
-0.07034
-0.035171
0.011724
0.023447
-0.011724
-0.011724
0
0.011724
0.023447
0.035171
0.046894
0.046894
0.058618
0.093787
0.11723
0.12896
0.082064
0.035171
0
0
-0.011724
-0.035171
-0.058618
-0.07034
-0.07034
-0.035171
-0.046894
-0.046894
-0.035171
-0.023447
-0.058618
-0.12896
-0.1524
-0.1524
-0.21102
-0.23447
-0.16413
-0.093787
-0.058618
-0.07034
-0.046894
-0.035171
0
0.035171
0.046894
0.058618
0
-0.07034
-0.093787
-0.07034
-0.16413
-0.22274
-0.17585
-0.25792
-0.24619
-0.023447
-0.07034
-0.07034
0.023447
0.023447
0.11723
0.082064
0.058618
0.035171
-0.023447
-0.046894
0
-0.058618
-0.035171
0
0.046894
0.093787
0.093787
0.17585
0.17585
0.17585
0.16413
0.1524
0.14068
0.12896
0.10551
0.10551
0.11723
0.12896
0.12896
0.11723
0.082064
0.070341
0.070341
0.10551
0.11723
0.10551
0.12896
0.1524
0.10551
0.093787
0.11723
0.11723
0.14068
0.11723
0.10551
0.093787
0.082064
0.058618
0.058618
0.046894
0.023447
0.023447
0.011724
0.023447
0.058618
0.082064
0.12896
0.093787
0.070341
0.070341
0.082064
0.082064
0.046894
-0.035171
-0.058618
-0.046894
-0.046894
-0.046894
-0.093787
-0.12896
-0.14068
-0.10551
-0.093787
-0.1524
-0.14068
-0.14068
-0.12896
-0.10551
-0.082064
-0.035171
0
0
0
0.011724
0.011724
-0.058618
-0.14068
-0.17585
-0.17585
-0.14068
-0.12896
-0.10551
-0.058618
-0.035171
-0.011724
0
0
0
-0.011724
-0.011724
0
0
0.023447
0.023447
0
-0.035171
-0.023447
-0.011724
0.058618
0.10551
0.1524
0.1993
0.1993
0.14068
0.10551
0.046894
0.023447
0.046894
0.082064
0.082064
0.046894
0.058618
0.058618
0.035171
-0.011724
-0.011724
0.011724
0.10551
0.093787
-0.023447
-0.10551
-0.14068
-0.058618
-0.011724
0.046894
0.093787
0.058618
0.011724
-0.023447
-0.046894
-0.046894
-0.035171
-0.023447
-0.023447
-0.023447
-0.046894
-0.07034
-0.07034
-0.07034
-0.07034
-0.082064
-0.07034
-0.082064
-0.082064
-0.093787
-0.093787
-0.082064
-0.07034
-0.046894
0
0.011724
0.046894
0.046894
0.070341
0.093787
0.093787
0.082064
0.058618
0.035171
0.046894
0.011724
-0.011724
0
-0.023447
-0.046894
-0.058618
-0.082064
-0.11723
-0.093787
-0.093787
-0.082064
-0.082064
-0.10551
-0.07034
-0.07034
-0.058618
-0.058618
-0.023447
-0.07034
-0.058618
-0.082064
-0.082064
-0.058618
-0.035171
-0.058618
-0.023447
-0.023447
-0.046894
-0.023447
0.035171
0
-0.011724
-0.011724
-0.023447
-0.023447
-0.023447
-0.011724
0
0.023447
-0.011724
-0.058618
-0.07034
-0.093787
-0.058618
0
0.011724
0.035171
0
-0.035171
-0.058618
-0.07034
-0.07034
-0.035171
0.023447
0.058618
0.070341
0.023447
0.035171
0.011724
0.011724
0.035171
-0.046894
-0.046894
-0.093787
-0.10551
-0.035171
-0.07034
-0.18758
-0.17585
-0.14068
-0.10551
-0.082064
-0.093787
-0.082064
-0.058618
-0.058618
-0.07034
-0.058618
-0.046894
-0.07034
-0.093787
-0.082064
-0.093787
-0.11723
-0.12896
-0.11723
-0.10551
-0.14068
-0.14068
-0.082064
-0.023447
-0.046894
-0.07034
-0.058618
-0.058618
-0.023447
-0.035171
-0.035171
-0.023447
-0.023447
0.011724
-0.023447
-0.011724
-0.011724
-0.035171
-0.058618
-0.046894
-0.046894
-0.023447
0.011724
0.046894
0.046894
0.035171
0.011724
-0.023447
-0.011724
0.046894
0.058618
0.058618
0.046894
0.082064
0.023447
-0.011724
-0.093787
-0.12896
-0.16413
-0.093787
-0.046894
-0.046894
-0.023447
0
-0.023447
0.023447
0
-0.011724
0
0.023447
0.058618
0.058618
0.070341
0.046894
0.058618
0.046894
0.035171
0.023447
0.035171
0.046894
0.070341
0.093787
0.058618
0.035171
0
-0.023447
-0.023447
-0.023447
-0.011724
0.011724
0.035171
0.082064
0.1524
0.1993
0.1993
0.17585
0.18758
0.25792
0.25792
0.21102
0.14068
0.058618
0.035171
0.011724
0
0.011724
-0.023447
-0.023447
-0.035171
-0.035171
-0.046894
-0.046894
-0.093787
-0.093787
-0.082064
-0.11723
-0.16413
-0.14068
-0.07034
-0.058618
-0.07034
-0.058618
-0.058618
-0.07034
-0.058618
-0.046894
-0.046894
-0.046894
-0.07034
-0.082064
-0.11723
-0.14068
-0.1993
-0.23447
-0.23447
-0.18758
-0.18758
-0.18758
-0.16413
-0.11723
-0.10551
-0.093787
-0.093787
-0.058618
-0.023447
-0.023447
0
0.011724
-0.023447
0
0.011724
0.011724
0.035171
0.011724
-0.058618
-0.058618
-0.093787
-0.11723
-0.16413
-0.18758
-0.25792
-0.29309
-0.26964
-0.31653
-0.32826
-0.31653
-0.30481
-0.31653
-0.30481
-0.26964
-0.24619
-0.23447
-0.21102
-0.16413
-0.1524
-0.14068
-0.11723
-0.082064
-0.093787
-0.14068
-0.12896
-0.1524
-0.11723
-0.11723
-0.12896
-0.14068
-0.11723
-0.1524
-0.14068
-0.12896
-0.082064
-0.11723
-0.16413
-0.14068
-0.082064
-0.046894
-0.035171
-0.035171
-0.035171
0.023447
0.046894
0.093787
0.10551
0.14068
0.14068
0.1993
0.23447
0.21102
0.21102
0.23447
0.25792
0.26964
0.26964
0.26964
0.29309
0.23447
0.16413
0.12896
0.093787
0.058618
-0.046894
-0.07034
-0.093787
-0.058618
-0.046894
-0.082064
-0.058618
-0.035171
-0.23447
-0.36343
-0.17585
-0.12896
-0.17585
-0.37515
-0.57445
-0.30481
-0.18758
-0.23447
-0.28136
-0.43377
-0.058618
-0.093787
-0.12896
-0.11723
-0.046894
-0.035171
-0.10551
-0.10551
-0.21102
-0.17585
-0.11723
-0.093787
-0.1993
-0.3986
-0.33998
-0.25792
-0.22274
-0.11723
0.10551
0.14068
-0.14068
-0.23447
-0.12896
-0.11723
0.082064
0.25792
0.23447
-0.023447
-0.10551
-0.17585
-0.16413
-0.18758
-0.28136
-0.30481
-0.21102
-0.14068
-0.10551
-0.10551
-0.1524
-0.14068
-0.093787
-0.035171
-0.058618
-0.058618
-0.10551
-0.093787
-0.082064
-0.093787
-0.093787
-0.10551
-0.093787
-0.07034
-0.035171
0.011724
0.023447
0.046894
0.082064
0.11723
0.11723
0.10551
0.11723
0.070341
0.11723
0.070341
0.082064
0.14068
0.17585
0.21102
0.28136
0.3517
0.32826
0.28136
0.25792
0.25792
0.22274
0.21102
0.1993
0.14068
0.093787
0.070341
0.046894
0.070341
0.070341
0.082064
0.093787
0.11723
0.14068
0.18758
0.1524
0.058618
0
-0.011724
-0.046894
-0.093787
-0.17585
-0.18758
-0.093787
-0.058618
-0.14068
-0.18758
-0.1993
-0.082064
0.011724
-0.093787
-0.29309
-0.082064
0
-0.1993
-0.24619
-0.1524
-0.07034
-0.10551
-0.12896
-0.10551
0.070341
0.058618
-0.1524
-0.093787
-0.058618
-0.07034
-0.11723
-0.14068
-0.082064
-0.093787
-0.07034
-0.07034
-0.14068
-0.16413
-0.18758
-0.29309
-0.25792
-0.28136
-0.14068
-0.11723
-0.14068
0.035171
0
0.035171
0.082064
0.10551
0
-0.035171
-0.10551
-0.14068
-0.082064
0.11723
0.11723
0.12896
0.14068
0.082064
0.058618
0.070341
0.082064
0.11723
0.14068
0.1524
0.14068
0.12896
0.11723
0.11723
0.10551
0.10551
0.082064
0.093787
0.093787
0.093787
0.070341
0.046894
-0.023447
-0.011724
-0.058618
-0.046894
-0.058618
-0.058618
-0.093787
-0.093787
-0.11723
-0.12896
-0.082064
-0.035171
-0.023447
-0.011724
-0.011724
0.023447
0.093787
0.14068
0.1524
0.1524
0.082064
0.12896
0.070341
0.070341
0.035171
0.011724
0
-0.011724
0.023447
0.023447
-0.011724
0.023447
0
-0.011724
-0.011724
-0.035171
-0.07034
-0.1524
-0.12896
-0.093787
-0.035171
-0.023447
-0.058618
-0.07034
-0.11723
-0.10551
-0.082064
-0.046894
0
0.046894
0.011724
-0.07034
-0.12896
-0.093787
0.046894
-0.035171
-0.1524
-0.18758
-0.12896
-0.17585
-0.082064
0.18758
0.21102
0.22274
0.1524
0.14068
-0.046894
0.046894
0.093787
0.070341
0.011724
0
0.035171
0.035171
0.035171
0.058618
0.046894
0.011724
0
-0.011724
-0.011724
-0.023447
0
0
0
0.046894
0.10551
0.12896
0.10551
0.046894
-0.035171
-0.023447
0
0.011724
-0.011724
0
0
0
0
0.011724
0.023447
0.058618
0.093787
0.11723
0.10551
0
0
0.046894
0.070341
0.093787
0.070341
0.035171
0.093787
0.17585
0.21102
0.18758
0.11723
0.093787
0.093787
0.10551
0.093787
0.1524
0.093787
0
-0.035171
0.011724
-0.035171
-0.035171
-0.10551
-0.10551
-0.082064
-0.082064
-0.07034
-0.046894
-0.023447
-0.023447
-0.023447
-0.011724
0
-0.082064
-0.10551
-0.10551
-0.082064
-0.07034
0.011724
0.023447
0.035171
0.011724
-0.011724
-0.046894
-0.058618
-0.046894
-0.058618
-0.058618
-0.035171
-0.023447
0.023447
-0.011724
-0.023447
-0.058618
-0.12896
-0.17585
-0.11723
-0.11723
-0.11723
-0.11723
-0.14068
-0.16413
-0.17585
-0.17585
-0.11723
0
0.035171
-0.046894
-0.07034
-0.093787
-0.10551
-0.035171
0
-0.07034
-0.10551
-0.093787
-0.07034
-0.046894
-0.035171
-0.023447
-0.07034
-0.11723
-0.1524
-0.046894
0
0.011724
0.023447
0.10551
0.11723
0.082064
0.070341
0.093787
0.093787
0.093787
0.082064
0.082064
0.12896
0.14068
0.12896
0.10551
0.11723
0.12896
0.1524
0.17585
0.18758
0.17585
0.23447
0.11723
0.1524
0.11723
0.11723
0.14068
0.1524
0.12896
0.14068
0.16413
0.093787
0.070341
0.046894
0.011724
-0.011724
-0.011724
-0.011724
-0.082064
-0.11723
-0.10551
-0.082064
-0.10551
-0.082064
-0.058618
-0.10551
-0.082064
-0.058618
-0.10551
-0.21102
-0.23447
-0.1524
-0.10551
-0.07034
-0.058618
0.011724
0.070341
0.12896
0.10551
0.1524
0.1524
0.14068
0.14068
0.10551
0.023447
0.070341
0.10551
0.14068
0.12896
0.093787
0.10551
0.070341
0.058618
0.023447
0.023447
0.023447
-0.011724
-0.011724
-0.011724
-0.046894
-0.07034
-0.058618
-0.10551
-0.16413
-0.12896
-0.011724
0.035171
0.070341
0.11723
0.1524
0.21102
0.21102
0.18758
0.18758
0.18758
0.16413
0.070341
0.011724
-0.07034
-0.14068
-0.10551
-0.035171
0
0.011724
0.035171
0.058618
0.10551
0.10551
0.11723
0.12896
0.10551
0.082064
0.082064
0.093787
0.12896
0.16413
0.17585
0.1524
0.14068
0.070341
0.046894
0.023447
0.046894
0.093787
0.093787
0.10551
0.10551
0.093787
0.10551
0.12896
0.10551
0.1524
0.23447
0.1993
0.1524
0.14068
0.14068
0.18758
0.28136
0.30481
0.24619
0.21102
0.16413
0.17585
0.16413
0.1524
0.12896
0.11723
0.058618
-0.011724
-0.07034
-0.11723
-0.11723
-0.093787
-0.17585
-0.16413
-0.1524
-0.1524
-0.14068
-0.12896
-0.16413
-0.12896
-0.093787
-0.10551
-0.058618
0.058618
0.058618
0.011724
0.023447
-0.011724
-0.046894
-0.023447
-0.011724
0
0.011724
0.023447
0.046894
0.023447
0.046894
0.058618
0.046894
0.058618
0.093787
0.093787
0.082064
0.023447
-0.035171
-0.046894
-0.07034
-0.07034
-0.07034
-0.093787
-0.10551
-0.12896
-0.12896
-0.14068
-0.093787
-0.046894
-0.011724
0
0
-0.058618
-0.11723
-0.12896
-0.11723
-0.12896
-0.12896
-0.14068
-0.17585
-0.12896
-0.10551
-0.046894
-0.035171
-0.046894
-0.035171
0
0.011724
0.011724
0.058618
0.14068
0.1524
0.14068
0.1993
0.22274
0.24619
0.22274
0.18758
0.1524
0.093787
0.058618
0.011724
0.011724
0.046894
0.070341
0.12896
0.082064
0.023447
-0.023447
-0.035171
-0.023447
-0.035171
-0.011724
0
0.046894
0.058618
0.035171
-0.023447
-0.14068
-0.21102
-0.082064
0.1524
0.16413
0.10551
0
-0.035171
0.011724
-0.011724
0.046894
0.16413
0.1993
0.17585
0.12896
0.082064
0.17585
0.1993
0.21102
0.21102
0.17585
0.1524
0.14068
0.10551
-0.023447
-0.035171
0.035171
0.046894
0.11723
0.16413
0.17585
0.22274
0.21102
0.1993
0.16413
0.17585
0.1524
0.12896
0.082064
0.046894
-0.011724
-0.023447
-0.058618
-0.10551
-0.11723
-0.082064
-0.046894
-0.082064
-0.07034
-0.035171
0
0.070341
0.070341
0.082064
0.058618
0.058618
0.058618
-0.058618
-0.1524
-0.17585
-0.18758
-0.14068
-0.14068
-0.082064
-0.082064
-0.046894
0.058618
0.011724
0
-0.07034
-0.07034
-0.058618
-0.023447
-0.058618
-0.07034
-0.07034
-0.035171
-0.023447
-0.011724
0.011724
0.023447
0.011724
0.070341
0.11723
0.14068
0.1524
0.1524
0.16413
0.10551
-0.011724
-0.046894
-0.058618
-0.082064
0.023447
0.035171
0.11723
0.046894
-0.07034
0.18758
0.30481
0.32826
0.22274
0.12896
0.12896
0.12896
0.10551
0.023447
0
-0.046894
-0.07034
-0.07034
-0.07034
-0.058618
-0.058618
-0.07034
-0.023447
0
0
-0.011724
-0.023447
-0.046894
-0.082064
-0.11723
-0.12896
-0.12896
-0.11723
-0.07034
-0.023447
-0.011724
0.011724
0.035171
0.011724
-0.046894
-0.058618
-0.093787
-0.1524
-0.1993
-0.25792
-0.23447
-0.16413
-0.07034
-0.093787
-0.11723
-0.035171
0.035171
0
0
0.058618
0.082064
0.058618
0.011724
-0.046894
-0.07034
-0.093787
-0.10551
-0.10551
-0.11723
-0.12896
-0.14068
-0.1993
-0.18758
-0.17585
-0.16413
-0.17585
-0.1993
-0.14068
-0.1524
-0.1524
-0.16413
-0.18758
-0.18758
-0.1524
-0.12896
-0.12896
-0.1524
-0.12896
-0.035171
-0.035171
0
0.070341
0.10551
0.023447
0
-0.035171
0
0
-0.011724
0
0.023447
0
0.023447
-0.058618
-0.058618
-0.035171
-0.011724
0.070341
0.082064
-0.07034
-0.011724
-0.023447
0.046894
0.12896
-0.035171
-0.058618
-0.093787
-0.058618
-0.058618
-0.082064
-0.07034
-0.10551
-0.07034
-0.082064
-0.10551
-0.11723
-0.11723
-0.093787
-0.093787
-0.082064
-0.16413
-0.21102
-0.18758
-0.12896
-0.10551
-0.14068
-0.16413
-0.17585
-0.12896
-0.058618
-0.011724
0
0.011724
-0.011724
-0.07034
-0.093787
-0.082064
-0.082064
-0.093787
-0.10551
-0.11723
-0.07034
-0.011724
-0.011724
-0.011724
0.011724
0.046894
0.070341
0.082064
0.046894
0.046894
0.035171
0.082064
0.082064
0.082064
0.12896
0.11723
0.093787
0
-0.011724
0
-0.035171
0
0.070341
0.12896
0.11723
0.16413
0.21102
0.26964
0.37515
0.44549
0.43377
0.33998
0.18758
0.11723
0.035171
0.011724
0
0.011724
0.035171
0.046894
0.046894
0.070341
0.12896
0.14068
0.16413
0.16413
0.14068
0.1524
0.16413
0.16413
0.16413
0.16413
0.16413
0.10551
0.058618
0.093787
0.12896
0.046894
0.046894
0.058618
-0.10551
-0.14068
-0.082064
-0.058618
-0.058618
-0.046894
-0.023447
-0.035171
-0.058618
-0.10551
-0.16413
-0.23447
-0.1524
-0.082064
-0.082064
0.035171
0.10551
0.023447
-0.082064
-0.082064
0
-0.10551
-0.12896
-0.07034
-0.07034
-0.07034
-0.082064
-0.11723
-0.082064
-0.07034
-0.058618
-0.046894
-0.011724
-0.035171
-0.046894
-0.058618
-0.1524
-0.23447
-0.1993
-0.1524
-0.1524
-0.28136
-0.22274
-0.093787
-0.11723
-0.14068
-0.11723
-0.082064
-0.14068
-0.16413
-0.29309
-0.26964
-0.43377
-0.33998
-0.1993
-0.3986
-0.73858
-0.89098
-0.22274
0.1993
0.1993
-0.046894
-0.10551
-0.011724
0.18758
0.10551
0.070341
-0.11723
-0.082064
0.011724
-0.035171
-0.035171
0.082064
0.30481
0.070341
0
-0.023447
-0.11723
0.14068
-0.14068
0
-0.011724
-0.14068
0.23447
0.21102
0.17585
0.12896
0.11723
0.18758
0.24619
0.11723
-0.16413
-0.30481
0.011724
0.16413
0.21102
0.16413
0.12896
0.093787
0.070341
-0.011724
0
0.058618
0.093787
0.093787
0.070341
0.093787
0.035171
0.046894
0.046894
0.011724
0
-0.046894
-0.046894
0.035171
0.011724
-0.035171
-0.046894
-0.023447
0
-0.07034
-0.082064
-0.11723
-0.14068
-0.11723
-0.11723
-0.10551
-0.10551
-0.082064
-0.023447
-0.07034
-0.11723
-0.10551
-0.093787
-0.10551
-0.12896
-0.12896
-0.12896
-0.1524
-0.1524
-0.1524
-0.14068
-0.082064
-0.046894
-0.082064
-0.07034
-0.058618
0
0.011724
0
0.070341
0.082064
0.10551
0.11723
0.093787
0.058618
0
0
0.023447
0.011724
0.011724
-0.035171
-0.046894
-0.035171
-0.046894
-0.058618
-0.07034
-0.07034
-0.082064
-0.11723
-0.11723
-0.093787
-0.082064
-0.07034
-0.07034
-0.058618
-0.12896
-0.093787
-0.093787
-0.11723
-0.11723
-0.07034
-0.035171
-0.035171
0
0.011724
0.035171
0.046894
0.082064
0.046894
0.011724
-0.035171
-0.07034
-0.093787
-0.023447
0.082064
-0.023447
0.070341
0.14068
0.1524
0.082064
0.046894
0.058618
0.058618
0.11723
0.11723
0.035171
-0.023447
0.011724
0
-0.058618
-0.093787
-0.11723
-0.10551
-0.023447
0
-0.035171
0
0.023447
0.023447
0.011724
0
-0.035171
-0.011724
0.046894
0.023447
0.023447
0.011724
0.058618
0.023447
-0.082064
-0.26964
-0.082064
0.035171
0.082064
-0.023447
-0.07034
0.035171
0.12896
0.023447
-0.07034
-0.1524
-0.3517
-0.52755
-0.10551
-0.058618
-0.11723
-0.011724
0.011724
0.046894
0.058618
0.035171
-0.058618
-0.12896
-0.046894
-0.10551
-0.058618
-0.10551
-0.26964
-0.25792
-0.22274
-0.12896
-0.12896
-0.12896
-0.12896
-0.16413
-0.18758
-0.1993
-0.18758
-0.24619
-0.24619
-0.29309
-0.28136
-0.22274
-0.1993
-0.22274
-0.25792
-0.17585
-0.11723
-0.12896
-0.1524
-0.17585
-0.21102
-0.30481
-0.32826
-0.21102
-0.11723
-0.11723
-0.1524
-0.058618
-0.011724
-0.046894
0.011724
0.011724
-0.11723
-0.093787
-0.046894
-0.07034
0.1524
0.21102
0.14068
0.046894
0.023447
0.035171
0.046894
0.093787
0.10551
0.082064
0.070341
0.058618
0.093787
0.035171
-0.011724
-0.023447
0
-0.011724
0.011724
0.070341
0.11723
0.093787
0.082064
0.035171
0.023447
0.046894
0.046894
0.070341
0.058618
0.070341
0.070341
0.070341
0.11723
0.082064
0.070341
0.082064
0.023447
0.023447
0.046894
0.093787
0.11723
0.1524
0.14068
0.093787
0.070341
0.058618
0.070341
0.070341
0.058618
0.058618
0.082064
0.082064
0.082064
0
0.011724
0.023447
0.070341
0.10551
0.11723
0.10551
0.12896
0.10551
0.070341
0.082064
0.058618
-0.035171
-0.035171
-0.046894
-0.046894
-0.035171
-0.058618
-0.046894
-0.023447
-0.011724
0.035171
0.046894
-0.011724
0.023447
0.035171
0.058618
0.082064
0.10551
0.093787
0.14068
0.082064
0.058618
0.12896
0.12896
0.082064
0.058618
0.070341
0.093787
0.093787
0.10551
0.058618
0.011724
-0.035171
-0.058618
-0.046894
0.011724
-0.023447
-0.035171
0
0.046894
0.035171
0.10551
0.1524
0.17585
0.22274
0.24619
0.24619
0.23447
0.22274
0.18758
0.10551
0.093787
0.082064
0.14068
0.18758
0.23447
0.21102
0.12896
0.082064
0.046894
-0.011724
-0.046894
-0.046894
0
0.12896
0.11723
0.093787
0.082064
0.093787
0.093787
0.070341
0.058618
0.058618
0.058618
0.023447
0.023447
0.035171
0.011724
0.035171
0.070341
0.058618
0.058618
0.070341
0.070341
0.14068
0.17585
0.18758
0.17585
0.10551
0.070341
0.046894
0.14068
0.24619
0.26964
0.093787
0.082064
0.12896
0.12896
0.10551
0.070341
0.082064
0.14068
0.11723
0.035171
0.046894
0.10551
0.16413
0.1524
0.10551
0.070341
0.082064
0.070341
0.023447
0.011724
0
0.035171
0.058618
0.058618
0.058618
0.058618
0.070341
0.058618
0.035171
0.058618
0.046894
0.011724
0.011724
0
-0.058618
-0.093787
-0.093787
-0.10551
-0.1524
-0.14068
-0.16413
-0.25792
-0.3517
-0.32826
-0.42204
-0.33998
-0.1993
-0.093787
-0.058618
-0.046894
-0.07034
-0.10551
-0.11723
-0.058618
-0.023447
-0.011724
0.011724
0.011724
0
0.011724
0.023447
0.023447
0.046894
0.058618
0.082064
0.070341
0.058618
0.10551
0.12896
0.21102
0.23447
0.1993
0.16413
0.1993
0.1993
0.1524
0.082064
0.11723
0.093787
0.082064
0.046894
0.046894
0.035171
0.035171
-0.035171
-0.035171
-0.046894
-0.046894
-0.12896
-0.14068
-0.011724
0.023447
-0.023447
-0.058618
-0.011724
0.011724
0.011724
0.070341
0.093787
0.11723
0.11723
0.10551
0.11723
0.10551
0.093787
0.082064
0.046894
0.023447
0.10551
0.17585
0.1993
0.1524
-0.011724
-0.1524
-0.093787
-0.023447
-0.035171
0.023447
-0.011724
0.058618
0.12896
0.093787
0.011724
-0.035171
0.070341
0.21102
0.32826
0.31653
0.28136
0.25792
0.23447
0.22274
0.26964
0.22274
0.23447
0.23447
0.25792
0.23447
0.23447
0.21102
0.16413
0.093787
0.093787
0.1524
0.18758
0.21102
0.17585
0.14068
0.11723
0.10551
0.070341
0.046894
0.011724
-0.023447
-0.058618
-0.058618
-0.011724
0
-0.046894
-0.035171
-0.093787
-0.11723
-0.07034
0.011724
0.082064
0.093787
0.093787
-0.058618
-0.07034
0.093787
0.1993
0.16413
0.11723
0.093787
0.070341
0.046894
0.058618
0.046894
0.093787
0.12896
0.21102
0.23447
0.25792
0.25792
0.23447
0.11723
0.093787
0.18758
0.046894
0.011724
0.12896
0.058618
0.082064
0.082064
0.16413
0.12896
0.023447
0.011724
0.035171
0.070341
0.070341
0.082064
0.093787
0.046894
0.058618
0.046894
0.058618
0.093787
0.10551
0.093787
0.10551
0.082064
0.093787
0.1524
0.1524
0.14068
0.12896
0.082064
0.070341
0.023447
0.023447
0.035171
0.011724
0.082064
0.070341
0.035171
-0.023447
0
0.058618
0.14068
0.16413
0.16413
0.093787
0.070341
0.10551
0.023447
-0.011724
-0.011724
-0.011724
-0.023447
0
-0.046894
-0.082064
0.011724
0.011724
-0.082064
-0.035171
-0.10551
-0.14068
-0.10551
-0.10551
-0.11723
-0.082064
-0.046894
-0.035171
-0.011724
-0.058618
-0.11723
-0.16413
-0.093787
0
0
-0.10551
-0.14068
-0.035171
-0.058618
-0.023447
0
0.046894
0.12896
0.10551
0.11723
0.070341
-0.023447
0.011724
0.058618
0.11723
0.12896
0.082064
0.023447
0
-0.023447
-0.058618
-0.1524
-0.24619
-0.17585
-0.18758
-0.1993
-0.1993
-0.14068
-0.10551
-0.1524
-0.14068
-0.11723
-0.11723
-0.12896
-0.1524
-0.17585
-0.18758
-0.18758
-0.16413
-0.1524
-0.14068
-0.11723
-0.082064
-0.058618
-0.093787
-0.093787
-0.035171
0.035171
0.10551
0.11723
0.082064
0.082064
0.035171
-0.011724
-0.046894
-0.035171
-0.011724
-0.011724
-0.035171
0.023447
0.023447
0
0
0.011724
0.023447
0.046894
0.10551
0.11723
0.093787
0.070341
0.093787
0.082064
0.023447
-0.046894
-0.093787
-0.093787
-0.10551
-0.10551
-0.093787
-0.058618
-0.046894
0
0.011724
0.035171
0.023447
0
0
-0.011724
-0.035171
-0.023447
-0.046894
-0.082064
-0.058618
-0.011724
0
0.058618
0.093787
0.082064
0.082064
0.035171
0.011724
-0.011724
-0.035171
-0.023447
-0.058618
0
0.023447
-0.046894
-0.082064
-0.058618
-0.035171
-0.16413
-0.30481
-0.1993
-0.26964
-0.24619
-0.16413
0.035171
0.046894
0.10551
0.17585
0.17585
0.082064
0.011724
0.011724
0.058618
0.082064
0.082064
0.093787
0.11723
0.1524
0.17585
0.18758
0.17585
0.16413
0.14068
0.12896
0.12896
0.11723
0.14068
0.1993
0.25792
0.30481
0.3517
0.36343
0.31653
0.24619
0.1993
0.18758
0.14068
0.093787
0.082064
0.070341
0.058618
0.058618
0.070341
0.058618
0.046894
0.058618
0.046894
0.058618
0.082064
0.10551
0.046894
0.10551
0.12896
0.14068
0.1524
0.11723
0.082064
0.11723
0.16413
0.070341
0.093787
0.093787
0.082064
0.023447
0.035171
0.093787
0.11723
0.11723
0.070341
0.058618
0.035171
0.011724
0.046894
0.035171
0.046894
0.058618
0.082064
0.10551
0.14068
0.1993
0.11723
0.035171
0.011724
0
0.070341
0.11723
0.058618
0
-0.046894
-0.082064
-0.11723
-0.082064
-0.082064
-0.10551
-0.1524
-0.1524
-0.1524
-0.12896
-0.093787
-0.10551
-0.082064
-0.10551
-0.058618
-0.11723
-0.11723
-0.07034
-0.10551
-0.07034
-0.11723
-0.10551
-0.093787
-0.07034
-0.023447
-0.011724
-0.058618
-0.046894
-0.07034
-0.17585
-0.23447
-0.3517
-0.21102
-0.082064
-0.011724
0.035171
-0.058618
-0.058618
-0.1524
-0.3517
-0.22274
-0.23447
-0.023447
0.046894
-0.058618
-0.21102
-0.082064
-0.035171
-0.082064
-0.14068
-0.023447
-0.035171
-0.093787
-0.1524
-0.10551
-0.093787
-0.10551
-0.14068
-0.14068
-0.07034
-0.07034
-0.082064
-0.082064
-0.058618
-0.035171
0.046894
0.011724
-0.023447
-0.023447
-0.023447
-0.035171
-0.035171
-0.035171
-0.046894
-0.035171
-0.093787
-0.035171
0.011724
0.035171
0.058618
0.023447
-0.046894
0.046894
0.093787
0.14068
0.16413
0.18758
0.24619
0.21102
0.1524
0.093787
0.082064
0.093787
0.16413
0.023447
-0.058618
-0.07034
-0.18758
-0.73858
-0.58617
-0.30481
-0.1524
-0.07034
-0.035171
-0.011724
-0.046894
-0.011724
-0.023447
0
0.070341
0.082064
0.14068
0.1524
0.11723
0.23447
0.12896
0.12896
0.11723
0.28136
0.22274
0.25792
0.25792
0.28136
0.25792
0.14068
0.12896
0.12896
0.11723
0.093787
0.046894
-0.023447
-0.011724
0
0.011724
0.011724
-0.035171
-0.046894
-0.082064
-0.058618
-0.093787
-0.093787
-0.11723
-0.082064
-0.058618
-0.023447
0.011724
0.011724
-0.023447
0
0.011724
-0.023447
-0.058618
-0.058618
-0.07034
-0.17585
-0.1993
-0.18758
-0.10551
0
0.058618
0.093787
0.058618
0.046894
0.046894
0.058618
0.046894
0.035171
0.011724
-0.023447
-0.046894
-0.035171
-0.011724
-0.011724
-0.035171
0.011724
0.082064
0.14068
0.14068
0.11723
0.1524
0.12896
0.14068
0.14068
0.082064
-0.011724
0.011724
0.10551
0.093787
0.058618
0.023447
0.011724
0.023447
0.082064
0.093787
0.10551
0.1524
0.26964
0.3517
0.31653
0.30481
0.1993
0.1524
0.12896
0.1524
0.14068
0.058618
0.082064
0.070341
0.058618
0.046894
0.011724
0
0
-0.046894
-0.07034
-0.082064
-0.093787
-0.11723
-0.14068
-0.11723
-0.11723
-0.093787
-0.058618
-0.07034
-0.035171
0.011724
0.070341
0.046894
0
0
-0.035171
-0.035171
-0.10551
-0.22274
-0.25792
-0.23447
-0.23447
-0.25792
-0.24619
-0.18758
-0.1524
-0.14068
-0.12896
-0.093787
-0.10551
-0.11723
-0.093787
-0.11723
-0.12896
-0.14068
-0.11723
-0.12896
-0.17585
-0.21102
-0.22274
-0.22274
-0.22274
-0.17585
-0.11723
-0.10551
-0.082064
-0.07034
-0.07034
-0.046894
-0.046894
-0.023447
-0.023447
0
0.035171
0.093787
0.082064
0.070341
0.058618
0.10551
0.14068
0.10551
0.093787
0.082064
0.058618
0.035171
0.035171
0.082064
0.11723
0.093787
0.082064
0.035171
-0.011724
0.011724
-0.07034
-0.07034
-0.10551
-0.41032
-0.18758
-0.035171
0.011724
0.023447
-0.023447
-0.011724
0.011724
0
-0.10551
-0.33998
-0.29309
-0.12896
0.023447
0.14068
0.18758
0.14068
0.070341
0.023447
0.023447
0.035171
0.082064
0.093787
0.10551
0.16413
0.11723
0.11723
0.14068
0.093787
0.093787
0.035171
-0.023447
-0.058618
-0.16413
-0.28136
-0.26964
0.058618
-0.10551
-0.17585
-0.14068
0.1524
0.21102
0.26964
0.29309
0.31653
0.31653
0.26964
0.18758
0.11723
0.14068
0.17585
0.18758
0.12896
0.093787
0.093787
0.058618
0.011724
-0.011724
0
0.046894
0.082064
-0.011724
-0.14068
-0.28136
-0.23447
-0.16413
-0.093787
-0.046894
0.070341
0.16413
0.093787
0.12896
0.058618
0.058618
0.070341
0.058618
0.035171
0.023447
0.070341
0.10551
0.046894
0.011724
0.070341
0.093787
0.082064
0.10551
0.093787
0
-0.058618
-0.10551
-0.058618
-0.011724
0.011724
-0.011724
-0.023447
0
-0.011724
0
0.023447
0.046894
0.070341
0.11723
0.093787
0.12896
0.12896
0.10551
0.12896
0.14068
0.1524
0.1524
0.093787
0.035171
-0.023447
-0.14068
-0.18758
-0.21102
-0.18758
-0.035171
-0.023447
-0.011724
0
-0.10551
-0.093787
-0.082064
-0.011724
0.046894
0.082064
0.17585
0.17585
0.23447
0.21102
0.1993
0.17585
0.14068
0.10551
0.10551
0.035171
-0.082064
-0.16413
-0.16413
-0.058618
0.058618
0.16413
0.18758
0.21102
0.22274
0.17585
0.11723
0.093787
0.11723
0.12896
0.14068
0.14068
0.1993
0.31653
0.25792
0.23447
0.18758
0.17585
0.082064
0.023447
0.023447
0.011724
0.046894
0.082064
0.058618
0
-0.058618
-0.058618
0.011724
0.035171
-0.011724
0.035171
0.14068
0.24619
0.24619
0.25792
0.25792
0.17585
0.070341
-0.10551
-0.17585
0.035171
0.11723
0.093787
0.058618
0.046894
0.011724
-0.07034
-0.10551
-0.10551
-0.082064
-0.10551
-0.093787
-0.082064
-0.058618
-0.07034
-0.082064
-0.07034
-0.07034
-0.10551
-0.14068
-0.12896
-0.10551
-0.058618
-0.035171
0
0
-0.058618
-0.058618
0.093787
0.12896
0.082064
0.035171
0.011724
0.082064
0.10551
0.12896
0.1524
0.18758
0.16413
0.14068
0.16413
0.1993
0.18758
0.16413
0.16413
0.21102
0.16413
0.023447
0.023447
0
0.070341
0
0.023447
0.023447
0.023447
0.011724
0.023447
0.058618
0.035171
-0.023447
-0.1524
-0.1524
-0.07034
-0.058618
-0.011724
-0.035171
-0.011724
0.023447
0.011724
0
-0.023447
-0.023447
0
-0.058618
-0.12896
-0.1993
-0.18758
-0.12896
-0.12896
-0.082064
-0.035171
0.046894
0.1524
0.17585
0.18758
0.17585
0.1993
0.18758
0.17585
0.12896
0.046894
0
-0.035171
-0.011724
-0.046894
-0.035171
-0.023447
-0.011724
0
0
0.011724
0.011724
-0.011724
-0.023447
-0.011724
-0.046894
-0.07034
-0.058618
-0.082064
-0.082064
-0.082064
-0.10551
-0.093787
-0.093787
-0.07034
-0.082064
-0.10551
-0.082064
-0.07034
-0.011724
-0.011724
-0.046894
-0.12896
-0.011724
0.11723
0.21102
0.1524
0
0.035171
0.17585
0.1524
0.10551
0.14068
0.17585
0.17585
0.093787
0
0.011724
0.11723
0.21102
0.25792
0.29309
0.29309
0.23447
0.21102
0.17585
0.17585
0.17585
0.17585
0.1524
0.12896
0.12896
0.11723
0.11723
0.082064
0.070341
0.035171
0.035171
0.070341
0.093787
0.14068
0.14068
0.070341
0.058618
0.046894
0.011724
0.023447
0
-0.035171
-0.082064
-0.035171
0.011724
0.046894
0.035171
0.093787
0.10551
0.082064
0.023447
0
-0.035171
0
-0.023447
0.058618
0.023447
0.046894
0.011724
0.058618
0.11723
0.12896
0.14068
0.14068
0.12896
0.1524
0.12896
0.12896
0.14068
0.093787
0.058618
0.070341
0.070341
0.093787
0.093787
0.10551
0.093787
0.070341
0.046894
0.082064
0.17585
0.25792
0.29309
0.22274
0.18758
0.12896
0.10551
0.082064
0.058618
0.023447
0.011724
0
0.023447
0.011724
0.058618
0.1524
0.16413
0.14068
0.12896
0.093787
0.070341
0.082064
0.093787
0.070341
0.058618
0.10551
0.093787
0.058618
0.093787
0.12896
0.070341
0.023447
0.046894
0.070341
0.035171
-0.011724
0
0.011724
0
0
0
0.011724
0.046894
0.046894
0.011724
-0.023447
-0.082064
-0.093787
-0.058618
-0.023447
-0.011724
-0.011724
0
0.023447
0.023447
-0.023447
-0.058618
-0.035171
-0.035171
-0.011724
-0.035171
-0.07034
-0.07034
-0.046894
-0.035171
0
0.023447
0.035171
0.058618
0.011724
0.023447
0.035171
0.058618
0.058618
0.082064
0.10551
0.10551
0.10551
0.11723
0.10551
0.10551
0.10551
0.10551
0.082064
0.093787
0.035171
-0.07034
-0.011724
0.058618
0.058618
0.070341
0.070341
0.058618
0.082064
0.058618
0.011724
0.023447
0.046894
0.023447
0.035171
0.035171
0.046894
0.058618
0.035171
0
0.046894
0.023447
0.082064
0.070341
0.082064
0.12896
0.070341
0.070341
0.093787
0.093787
0.12896
0.16413
0.1993
0.16413
0.093787
0.10551
0.10551
0.14068
0.082064
0.10551
0.093787
0.093787
0.10551
0.10551
0.12896
0.093787
0.046894
0.023447
0.023447
0.035171
-0.046894
-0.035171
-0.023447
0
0.035171
0.035171
0.11723
0.046894
-0.023447
-0.035171
-0.046894
-0.07034
-0.082064
-0.07034
-0.07034
-0.07034
-0.046894
-0.023447
-0.035171
-0.046894
-0.058618
-0.093787
-0.023447
0.011724
0.046894
0.093787
0.11723
0.093787
0.035171
0
-0.011724
-0.023447
0.011724
0.023447
0.011724
-0.011724
0.011724
0.070341
0.082064
0.070341
0.070341
0.046894
0.046894
0.046894
0.023447
0
0
-0.023447
-0.035171
-0.046894
-0.058618
-0.035171
-0.035171
-0.11723
-0.10551
-0.12896
-0.11723
-0.023447
0.058618
0.082064
0.12896
0.17585
0.17585
0.14068
0.10551
-0.011724
-0.046894
-0.035171
0
0.070341
0.070341
0.058618
0.023447
0.023447
0.035171
0.023447
0.035171
0.035171
0.058618
0.058618
0.070341
0.093787
0.11723
0.17585
0.14068
0.14068
0.1524
0.10551
0.082064
0.082064
0.12896
0.14068
0.12896
0.12896
0.11723
0.093787
0.058618
0.023447
0.011724
0.023447
0.046894
0.011724
-0.011724
-0.035171
0.011724
0.082064
0.1993
0.28136
0.25792
0.26964
0.25792
0.23447
0.21102
0.16413
0.14068
0.10551
0.058618
0.046894
0.035171
0
0
0
0.023447
0.035171
-0.011724
-0.07034
-0.082064
-0.093787
-0.082064
-0.093787
-0.12896
-0.12896
-0.082064
-0.058618
-0.058618
-0.07034
-0.07034
-0.07034
-0.046894
-0.023447
-0.035171
-0.046894
-0.058618
-0.11723
-0.14068
-0.11723
-0.11723
-0.058618
-0.023447
-0.07034
-0.11723
-0.16413
-0.16413
-0.07034
-0.023447
-0.035171
-0.011724
0.011724
0
-0.058618
-0.093787
-0.10551
-0.10551
-0.10551
-0.058618
-0.046894
-0.011724
0
0.035171
0
-0.023447
-0.011724
0.011724
0.023447
0.023447
0.046894
0.11723
0.14068
0.1524
0.11723
0.093787
0.14068
0.12896
0.046894
-0.07034
-0.17585
-0.17585
-0.12896
-0.07034
-0.082064
-0.07034
-0.093787
-0.07034
-0.035171
-0.035171
-0.058618
-0.046894
-0.011724
-0.023447
-0.046894
-0.07034
-0.058618
0
0
0.011724
0.023447
-0.011724
0.011724
0
-0.035171
-0.046894
-0.035171
0
-0.046894
-0.011724
0.035171
0.046894
0.023447
0.011724
0.046894
0.011724
-0.058618
-0.082064
-0.093787
-0.082064
-0.023447
-0.023447
-0.035171
-0.035171
-0.023447
-0.011724
0
0.011724
0
0.023447
0.023447
0.011724
-0.046894
-0.07034
-0.035171
-0.035171
-0.11723
-0.093787
0.046894
0.10551
0.10551
0.10551
0.10551
0.12896
0.1524
0.14068
0.093787
0.070341
0.058618
0.023447
-0.023447
-0.058618
-0.082064
-0.082064
-0.093787
-0.07034
-0.082064
-0.093787
-0.046894
0.023447
0.035171
0.046894
0.011724
-0.058618
-0.093787
-0.11723
-0.12896
-0.16413
-0.1993
-0.18758
-0.28136
-0.30481
-0.26964
-0.28136
-0.32826
-0.37515
-0.18758
-0.035171
-0.035171
-0.082064
-0.26964
-0.17585
-0.046894
0.046894
0.11723
0.082064
0.058618
0
0.023447
-0.046894
-0.093787
-0.046894
-0.058618
-0.07034
-0.035171
-0.023447
-0.035171
-0.035171
-0.023447
0
0
0.023447
0.082064
0.093787
0.082064
0.011724
0
-0.023447
-0.082064
-0.082064
-0.082064
-0.046894
0.023447
-0.011724
-0.046894
-0.023447
-0.011724
-0.046894
-0.046894
0.011724
0.046894
0.14068
0.17585
0.18758
0.16413
0.11723
0.093787
0.10551
0.12896
0.1524
0.18758
0.21102
0.18758
0.11723
0.058618
0.035171
0.023447
0.046894
0.046894
0.035171
0.023447
0
-0.046894
-0.058618
-0.058618
-0.093787
-0.093787
-0.07034
-0.046894
0
0.1524
0.25792
0.25792
0.1524
0.10551
0.082064
0.058618
0.023447
-0.035171
-0.023447
0.011724
-0.035171
-0.07034
-0.093787
-0.07034
-0.046894
-0.07034
-0.082064
-0.10551
-0.12896
-0.1524
-0.16413
-0.18758
-0.16413
-0.12896
-0.093787
-0.058618
-0.058618
-0.07034
-0.035171
-0.023447
-0.093787
-0.1524
-0.16413
-0.18758
-0.16413
-0.11723
-0.093787
-0.093787
-0.058618
-0.046894
-0.046894
-0.058618
-0.07034
-0.058618
-0.058618
-0.07034
-0.046894
-0.058618
-0.058618
-0.023447
0
-0.011724
-0.011724
0
-0.023447
-0.011724
-0.046894
-0.046894
-0.023447
-0.046894
-0.082064
-0.035171
-0.035171
-0.07034
-0.07034
-0.093787
-0.082064
-0.082064
-0.058618
-0.058618
-0.023447
0
-0.07034
-0.07034
-0.093787
-0.10551
-0.10551
-0.082064
-0.058618
-0.035171
-0.035171
-0.011724
-0.023447
-0.023447
-0.035171
-0.17585
-0.17585
-0.1524
-0.16413
-0.21102
-0.1993
-0.17585
-0.16413
-0.12896
-0.14068
-0.14068
-0.11723
-0.11723
-0.10551
-0.082064
-0.082064
-0.058618
-0.011724
-0.035171
-0.035171
-0.035171
-0.035171
-0.035171
0
0.023447
-0.046894
-0.035171
-0.023447
0
-0.011724
0
0.011724
0.023447
0.058618
0.011724
0.023447
0.035171
0.10551
0.058618
0.070341
0.070341
0.046894
0.035171
0.070341
0.011724
-0.035171
-0.058618
-0.046894
-0.023447
0.035171
0
0.023447
0.082064
0.082064
0.058618
0.058618
0.058618
0.011724
0.011724
0.058618
0.070341
0.070341
0.046894
-0.035171
-0.046894
-0.035171
-0.011724
0
0.011724
0
0
0.035171
0.011724
0
-0.023447
-0.046894
-0.046894
-0.058618
-0.035171
-0.046894
-0.046894
-0.058618
-0.093787
-0.082064
-0.10551
-0.16413
-0.21102
-0.1524
-0.07034
-0.058618
0
0.070341
0.11723
0.10551
0.082064
0.046894
0.011724
0.023447
0.035171
0.046894
0.070341
0.058618
0.046894
0.035171
0
0.046894
0.011724
-0.023447
0.023447
0.023447
-0.035171
-0.035171
-0.035171
-0.035171
-0.023447
0.011724
0.035171
0.070341
0.070341
0.046894
0.011724
-0.023447
-0.058618
-0.082064
-0.07034
-0.082064
-0.11723
-0.093787
-0.10551
-0.1524
-0.1524
-0.11723
-0.082064
-0.07034
-0.082064
-0.082064
-0.058618
-0.07034
-0.07034
-0.035171
-0.011724
0.035171
0.058618
0.058618
0.070341
0.14068
0.14068
0.21102
0.12896
0.082064
0.093787
0.10551
0.082064
0.070341
0.058618
0.046894
0.10551
0.12896
0.16413
0.17585
0.17585
0.1524
0.10551
0.070341
0.12896
0.28136
0.30481
0.25792
0.22274
0.14068
0.058618
-0.011724
-0.023447
-0.046894
-0.035171
0
-0.011724
-0.023447
0
0.011724
-0.035171
-0.035171
-0.046894
-0.046894
-0.046894
-0.07034
-0.046894
-0.035171
-0.035171
-0.046894
-0.07034
-0.082064
-0.082064
-0.10551
-0.11723
-0.093787
-0.082064
-0.046894
-0.07034
-0.10551
-0.10551
-0.082064
-0.058618
0.035171
0.046894
-0.035171
-0.058618
-0.07034
-0.07034
-0.011724
-0.035171
-0.035171
-0.023447
0
-0.011724
-0.023447
-0.035171
-0.035171
-0.011724
0
0.011724
0
0.023447
0.035171
0.046894
0.070341
0.082064
0.082064
0.082064
0.046894
0.082064
0.10551
0.035171
0.082064
0.058618
-0.011724
-0.058618
-0.14068
-0.10551
-0.046894
0.023447
0.11723
0.1524
0.16413
0.17585
0.18758
0.14068
0.14068
0.11723
0.070341
0.023447
0.035171
0.035171
0.093787
0.046894
0.023447
0.058618
0.023447
0.046894
0.046894
0
0
0.023447
0.011724
0.035171
0.046894
0.082064
0.12896
0.12896
0.12896
0.17585
0.18758
0.1993
0.1524
0.14068
0.10551
0.10551
0.10551
0.070341
0.011724
0.035171
0.035171
0.058618
0.082064
0.082064
0.11723
0.12896
0.14068
0.16413
0.10551
0.14068
0.1524
0.1524
0.10551
0.093787
0.046894
0.058618
0.070341
0.070341
0.058618
0.011724
0
-0.023447
-0.07034
-0.082064
-0.07034
-0.07034
-0.058618
-0.058618
-0.046894
-0.023447
-0.023447
-0.058618
-0.082064
-0.10551
-0.082064
-0.082064
-0.046894
-0.11723
-0.1524
-0.14068
-0.11723
-0.14068
-0.11723
-0.093787
-0.082064
-0.07034
-0.082064
-0.07034
-0.046894
0
0.023447
0.058618
0.058618
0.011724
-0.023447
-0.035171
-0.058618
-0.082064
-0.07034
-0.082064
-0.023447
-0.07034
-0.035171
-0.035171
0
0
0
0.011724
0.011724
0.011724
-0.035171
-0.035171
-0.058618
-0.10551
-0.10551
-0.10551
-0.11723
-0.058618
-0.023447
0.023447
0.023447
0.035171
-0.011724
0
0.011724
0.023447
0.035171
0.070341
0.082064
0.046894
0.011724
0
0
-0.011724
-0.035171
-0.023447
0.023447
0.058618
-0.011724
-0.082064
0
0.12896
0.14068
0.14068
0.082064
0.058618
0.23447
0.24619
0.23447
0.25792
0.22274
0.17585
0.12896
0.17585
0.18758
0.17585
0.17585
0.16413
0.1524
0.12896
0.10551
0.070341
0.035171
0.011724
0.011724
0.011724
-0.011724
-0.023447
-0.011724
0
0
0
-0.035171
-0.011724
0
0.035171
0.14068
0.1993
0.18758
0.16413
0.12896
0.093787
0.093787
0.11723
0.058618
0.046894
0.035171
0.011724
0.035171
0.023447
0.023447
-0.011724
-0.023447
-0.011724
-0.035171
-0.046894
-0.035171
0
-0.023447
0
-0.058618
-0.046894
-0.058618
-0.058618
-0.093787
-0.11723
-0.12896
-0.11723
-0.11723
-0.093787
-0.082064
-0.035171
-0.011724
-0.046894
-0.035171
-0.023447
0.011724
0.011724
0.058618
0.058618
0.070341
0.058618
0.035171
0
-0.011724
-0.023447
-0.035171
-0.046894
-0.046894
-0.058618
-0.035171
-0.023447
0
-0.07034
-0.093787
-0.023447
0.023447
0.035171
-0.046894
-0.11723
-0.14068
-0.17585
-0.16413
-0.14068
-0.12896
-0.12896
-0.12896
-0.11723
-0.12896
-0.12896
-0.18758
-0.18758
-0.16413
-0.11723
-0.082064
-0.07034
-0.058618
-0.035171
-0.058618
-0.046894
-0.046894
-0.07034
-0.07034
-0.082064
-0.07034
-0.058618
-0.046894
-0.046894
0
-0.011724
0.023447
0.035171
0.093787
0.035171
-0.035171
-0.023447
-0.023447
0
0.011724
0.011724
0.011724
0.011724
0.011724
0.011724
0
0.011724
0.023447
0.035171
0.035171
0.023447
-0.023447
-0.07034
-0.16413
-0.24619
-0.16413
-0.093787
-0.058618
-0.035171
0.035171
0.023447
0.082064
0.070341
0.058618
0.070341
0.093787
0.093787
0.10551
0.11723
0.11723
0.10551
0.082064
0.10551
0.10551
0.093787
0.082064
0.035171
0.023447
0.011724
-0.011724
-0.023447
0.011724
0.011724
0.023447
0
0.011724
0.011724
0.035171
-0.023447
-0.011724
0.011724
0.046894
0.035171
0
-0.035171
-0.058618
-0.11723
-0.07034
-0.023447
-0.046894
-0.1524
-0.1993
-0.17585
-0.23447
-0.093787
-0.17585
-0.22274
-0.1524
-0.023447
0.011724
-0.011724
-0.046894
-0.046894
-0.07034
-0.11723
-0.12896
-0.093787
-0.07034
-0.082064
-0.058618
-0.07034
-0.058618
-0.011724
0
-0.023447
0.023447
0.046894
0.070341
0.035171
0.011724
0.011724
0
0.011724
0.070341
0.10551
0.082064
0.093787
0.082064
0.093787
0.070341
-0.035171
-0.07034
-0.093787
-0.082064
-0.023447
0.011724
0.046894
0.058618
0.035171
0.023447
0.023447
0.035171
0.011724
0.011724
-0.023447
-0.058618
-0.058618
0.011724
0.046894
0
0
0.011724
0.023447
0.023447
0.011724
-0.011724
0
0
0
0.035171
-0.023447
0
0.023447
0
0
0.011724
0.035171
0.023447
0.023447
-0.011724
0.011724
0.035171
0.082064
0.16413
0.1993
0.1993
0.16413
0.12896
0.10551
0.10551
0.070341
0.070341
0.082064
-0.046894
-0.10551
-0.07034
-0.10551
-0.17585
-0.21102
-0.058618
0.023447
0.035171
-0.035171
-0.023447
0
0.023447
0.12896
0.093787
0.082064
0.082064
0.058618
0
-0.011724
-0.011724
0.10551
0.058618
0.070341
0.093787
0.070341
0.046894
0.046894
0.058618
0.070341
0.058618
0.035171
0
-0.035171
-0.035171
-0.035171
-0.035171
-0.035171
-0.035171
-0.023447
-0.023447
-0.011724
0
-0.023447
-0.023447
-0.046894
-0.046894
-0.10551
-0.12896
-0.093787
-0.07034
-0.082064
-0.046894
-0.07034
-0.082064
-0.07034
-0.11723
-0.16413
-0.07034
-0.035171
0.046894
-0.046894
-0.058618
-0.082064
-0.10551
-0.011724
0.035171
0.035171
0.058618
0.046894
0.082064
0.082064
0.082064
0.10551
0.046894
0.070341
0.070341
0.058618
0.10551
0.11723
0.070341
0.035171
0
-0.011724
-0.011724
-0.035171
-0.035171
-0.011724
-0.023447
-0.023447
-0.023447
-0.035171
-0.011724
0
-0.011724
-0.023447
-0.023447
0.011724
0.046894
0.046894
0.058618
0.046894
0.035171
0.035171
0.070341
0.023447
0.023447
0.035171
0.011724
0.023447
0.058618
0.082064
0.070341
0.046894
0.058618
0.070341
0.082064
0.058618
0.070341
0.082064
0.093787
0.093787
0.10551
0.093787
0.035171
0.023447
0.046894
0.070341
0.046894
0.035171
0.035171
0.035171
0.023447
0.035171
0.035171
0.058618
0.023447
0.011724
0.035171
0.046894
0.070341
0.035171
0.046894
0.058618
0.082064
0.093787
0.10551
0.10551
0.058618
0.046894
0.046894
0.046894
0.058618
0.046894
0.046894
0.035171
0.035171
0.082064
0.093787
0.070341
0.058618
0.046894
0.058618
0.035171
0.011724
0
0.011724
0.046894
0.070341
0.046894
0.023447
0.046894
0.023447
-0.011724
-0.035171
-0.082064
-0.093787
-0.07034
-0.07034
-0.035171
-0.011724
0.011724
0.023447
0.035171
0.070341
0.070341
0.10551
0.10551
0.070341
0.058618
0.082064
0.1524
0.12896
0.16413
0.17585
0.1993
0.21102
0.1993
0.16413
0.12896
0.093787
0.070341
-0.023447
-0.1993
-0.12896
-0.035171
-0.10551
-0.24619
-0.18758
-0.093787
-0.1524
-0.14068
-0.17585
-0.10551
-0.07034
0
0.011724
0.10551
0.082064
0.058618
0.035171
0.11723
0.18758
0.16413
0.12896
0.11723
0.11723
0.082064
0.070341
0.046894
0.093787
0.11723
0.093787
0.046894
0
-0.023447
-0.082064
-0.035171
0.046894
0
-0.023447
0.011724
0.011724
0.011724
-0.011724
-0.046894
-0.035171
-0.07034
-0.082064
-0.07034
-0.046894
-0.023447
-0.023447
-0.035171
-0.046894
-0.046894
-0.058618
-0.058618
-0.093787
-0.082064
-0.046894
0.035171
0.12896
0.1524
0.10551
0.10551
0.093787
0.070341
0.023447
0
0.011724
0
0
0.035171
0.023447
0
0.011724
0
0
0
0.011724
-0.011724
-0.011724
0
0.023447
0.035171
0.023447
0.011724
0.023447
0.011724
0.011724
0.070341
0.046894
0.023447
0.058618
0.070341
0.070341
0.070341
0.082064
0.10551
0.093787
0.046894
0.046894
0.011724
0.011724
0.011724
0.035171
0.023447
0
0
0
0.035171
-0.023447
-0.035171
-0.023447
0.011724
0.023447
0.082064
0.11723
0.12896
0.1524
0.14068
0.14068
0.1524
0.1524
0.1524
0.14068
0.093787
0.070341
0.046894
0.023447
0.035171
0.058618
0.058618
0.070341
0.070341
0.070341
0.058618
0.058618
0.035171
0.035171
0.058618
0.058618
0.046894
0.023447
0.011724
0.058618
0.058618
0.035171
0.046894
0.058618
0.023447
0.058618
0.10551
0.093787
0.046894
0.093787
0.093787
0.10551
0.10551
0.093787
0.11723
0.11723
0.10551
0.1524
0.14068
0.1524
0.12896
0.10551
0.10551
0.058618
-0.011724
-0.058618
-0.12896
-0.17585
-0.16413
-0.17585
-0.18758
-0.1524
-0.14068
-0.14068
-0.12896
-0.093787
-0.058618
-0.023447
0
0.035171
0
-0.023447
-0.058618
-0.023447
0.011724
0.046894
0.093787
0.10551
0.093787
0.046894
0.058618
0.10551
0.10551
0.082064
0.093787
0.082064
0.035171
0.035171
0.046894
0.046894
0.035171
0.035171
0.058618
0.046894
0
-0.011724
-0.011724
0.011724
0.023447
0.023447
0.023447
0.046894
0.058618
0.070341
0.046894
0.046894
0.058618
0.011724
-0.058618
-0.093787
-0.035171
-0.023447
-0.035171
-0.011724
0
0.011724
0.035171
0
-0.011724
0.011724
0.046894
0.058618
0.011724
0.035171
0.046894
0.046894
0.035171
0.023447
0.023447
0.035171
0.023447
0.011724
0.035171
0.046894
0.082064
0.10551
0.12896
0.14068
0.14068
0.12896
0.093787
0.023447
-0.011724
-0.011724
-0.011724
-0.011724
0
0.093787
0.14068
0.24619
0.32826
0.29309
0.25792
0.24619
0.18758
0.1524
0.070341
0.011724
0.011724
0.035171
0.058618
0.070341
0.070341
0.023447
-0.035171
0
0.011724
0
0
-0.07034
-0.011724
-0.035171
-0.011724
0.023447
-0.011724
-0.035171
-0.12896
-0.12896
-0.1524
-0.11723
-0.07034
-0.082064
-0.10551
-0.058618
-0.011724
-0.082064
-0.16413
-0.16413
-0.1524
-0.14068
-0.12896
-0.14068
-0.12896
-0.12896
-0.11723
-0.12896
-0.14068
-0.1524
-0.18758
-0.24619
-0.23447
-0.23447
-0.1993
-0.14068
-0.10551
-0.058618
0
0.035171
-0.023447
-0.11723
-0.1524
-0.16413
-0.1993
-0.14068
-0.093787
-0.082064
-0.093787
-0.058618
0.011724
0.011724
0.023447
-0.011724
-0.035171
-0.046894
-0.011724
-0.023447
-0.046894
-0.046894
-0.07034
-0.058618
-0.07034
-0.046894
-0.046894
-0.011724
0
0
-0.011724
-0.035171
-0.023447
0.035171
0.046894
0.023447
0
-0.023447
-0.023447
0.035171
0.070341
0.046894
0.082064
0.12896
0.093787
0.035171
-0.011724
-0.023447
-0.058618
-0.011724
0.046894
0.035171
0.035171
0.035171
-0.035171
-0.035171
0.023447
0.011724
0.023447
0.023447
0.035171
0.011724
0
-0.035171
-0.035171
-0.058618
-0.011724
0
-0.023447
-0.011724
-0.046894
-0.07034
-0.093787
-0.082064
-0.11723
-0.14068
-0.14068
-0.10551
-0.11723
-0.093787
-0.07034
-0.046894
-0.12896
-0.11723
-0.11723
-0.10551
-0.07034
-0.035171
-0.011724
0.023447
0.070341
0.082064
0.070341
0.070341
0.093787
0.14068
0.1524
0.10551
0.082064
0.070341
0.046894
-0.058618
-0.093787
-0.058618
-0.07034
-0.058618
0
-0.011724
-0.046894
-0.046894
-0.035171
0.035171
0.058618
0.058618
0.070341
0.070341
0.046894
0.058618
0.035171
0.082064
0.082064
0.023447
0.058618
0.070341
0.093787
0.011724
0
0.035171
0.035171
0.093787
0.093787
0.058618
0.058618
0.082064
0.035171
-0.07034
-0.10551
-0.12896
-0.12896
-0.1524
-0.082064
0.046894
0.035171
0.058618
0
-0.058618
-0.10551
-0.10551
-0.07034
-0.093787
-0.14068
-0.12896
-0.082064
-0.11723
-0.17585
-0.16413
-0.14068
-0.10551
-0.058618
-0.011724
0.046894
0.058618
0.10551
0.082064
0.082064
0.058618
0.058618
0.093787
0.070341
0.082064
0.035171
0.023447
0.011724
-0.023447
-0.011724
-0.058618
0.035171
0.058618
0.12896
0.16413
0.10551
0.058618
0.035171
0.035171
0.070341
0.046894
0.046894
0.035171
-0.011724
-0.011724
-0.023447
-0.046894
0
-0.058618
-0.11723
-0.093787
-0.07034
-0.093787
-0.10551
-0.07034
-0.058618
-0.046894
-0.07034
-0.093787
-0.082064
-0.058618
-0.035171
-0.058618
-0.046894
-0.07034
0
0.035171
0.035171
0.046894
0.046894
0.058618
0.058618
0
-0.046894
-0.011724
0
-0.011724
-0.023447
0.023447
0.058618
0.046894
0.023447
-0.035171
-0.07034
-0.10551
-0.082064
-0.093787
-0.12896
-0.10551
-0.1524
-0.1993
-0.21102
-0.22274
-0.1993
-0.26964
-0.28136
-0.24619
-0.21102
-0.1993
-0.18758
-0.1524
-0.14068
-0.14068
-0.093787
-0.046894
-0.035171
-0.035171
-0.023447
0
-0.011724
-0.011724
0.046894
0.14068
0.18758
0.24619
0.17585
0.1524
0.1524
0.12896
0.093787
0.082064
-0.011724
-0.058618
-0.035171
0
0.058618
0.093787
0.11723
0.14068
0.17585
0.16413
0.12896
0.10551
0.093787
-0.011724
0
0.12896
0.11723
0.070341
0.082064
0.082064
0.035171
-0.023447
-0.07034
-0.11723
-0.12896
-0.035171
-0.011724
-0.011724
-0.023447
0
-0.023447
0.035171
0.035171
0.035171
0.011724
0
0.023447
0.035171
0.011724
-0.046894
-0.11723
-0.1524
-0.1524
-0.12896
-0.082064
-0.035171
-0.023447
-0.046894
-0.058618
-0.046894
-0.023447
-0.011724
-0.035171
-0.058618
-0.046894
-0.035171
-0.058618
-0.035171
-0.011724
-0.011724
-0.011724
0.035171
0.070341
0.070341
0.10551
0.023447
-0.046894
-0.046894
-0.023447
0.023447
0.046894
0
0.046894
0.058618
0.046894
0.082064
0.046894
0.035171
-0.023447
0.023447
0.082064
0.16413
0.093787
0.11723
0.10551
0.082064
0.14068
0.12896
0.11723
0.11723
0.1524
0.10551
0.070341
0.082064
0.093787
0.1993
0.023447
0.035171
0.011724
0.058618
0.035171
0.070341
0.011724
0.082064
0.058618
0.093787
0.058618
0.17585
0.17585
0.10551
0.17585
0.035171
0.070341
0.1524
0.1993
0.12896
0.14068
0.12896
0.070341
0
-0.07034
-0.093787
-0.035171
0.035171
0.093787
0.035171
-0.058618
-0.093787
0.023447
0.12896
0.16413
0.11723
0.035171
0
0.035171
-0.035171
0
-0.023447
-0.023447
-0.07034
-0.082064
-0.093787
-0.058618
-0.035171
-0.07034
-0.14068
-0.12896
-0.093787
-0.10551
-0.082064
-0.046894
0
0.011724
0
0.046894
0.058618
0.046894
0.035171
0.070341
0.14068
0.23447
0.24619
0.1993
0.11723
0.070341
0.035171
0.023447
0.046894
0.046894
0.011724
-0.023447
0
-0.07034
-0.1524
-0.17585
-0.16413
-0.093787
-0.07034
-0.07034
-0.058618
-0.058618
-0.082064
-0.093787
-0.10551
-0.046894
-0.058618
-0.023447
0.011724
-0.058618
-0.093787
0.023447
0
0.011724
-0.14068
-0.14068
-0.17585
-0.11723
-0.058618
-0.046894
-0.11723
-0.11723
-0.082064
-0.023447
-0.023447
0.035171
0.035171
0.046894
0.070341
-0.058618
-0.11723
-0.058618
-0.023447
0.093787
0.046894
0.023447
0.035171
0.10551
0.1524
0.11723
0.10551
0.070341
0.035171
0
-0.046894
-0.082064
-0.046894
-0.035171
-0.12896
-0.14068
-0.18758
-0.21102
-0.25792
-0.26964
-0.22274
-0.1993
-0.16413
-0.14068
-0.11723
-0.082064
-0.058618
0.011724
0.070341
0.093787
0.10551
0.082064
0.023447
0
0.046894
0.058618
0.046894
0.058618
0.10551
0.035171
0.035171
0.12896
0.17585
0.18758
0.17585
0.093787
0.093787
0.1524
0.046894
0.082064
0.093787
0.046894
0.035171
0.058618
0.011724
0.011724
0.035171
0.023447
-0.023447
-0.093787
-0.10551
-0.082064
-0.011724
-0.011724
0.070341
0.058618
-0.011724
-0.011724
-0.058618
-0.011724
-0.011724
0
-0.011724
0.035171
0.093787
0.093787
0.10551
0.10551
0.082064
0.023447
-0.035171
-0.093787
-0.07034
-0.035171
-0.1524
-0.17585
0.035171
0.12896
0.093787
0.093787
0.10551
0.082064
0.035171
0.011724
0.023447
0.023447
0
0.023447
-0.046894
0.011724
0.082064
0.11723
0.082064
0.011724
0.023447
0.035171
0.046894
0.10551
0.082064
0.093787
0.10551
0.1524
0.16413
0.1993
0.16413
0.12896
0.1993
0.11723
0.18758
0.18758
0.18758
0.17585
0.17585
0.22274
0.12896
0.082064
0.082064
0.046894
0.023447
0.023447
0.058618
0.023447
0.046894
0.023447
0.011724
0.070341
-0.07034
-0.082064
-0.10551
-0.082064
-0.058618
-0.023447
0.011724
0.046894
0.023447
0.070341
0.093787
0.058618
0.070341
0.011724
0.035171
0.093787
0.1524
0.1993
0.1993
0.18758
0.093787
0.023447
0
-0.011724
0
0
-0.035171
-0.058618
-0.035171
0.023447
0.070341
-0.011724
-0.035171
-0.046894
-0.035171
0
0.011724
0.058618
0.082064
0.11723
0.14068
0.11723
0.046894
0.058618
0.070341
0.093787
0.12896
0.10551
0.11723
0.10551
0.11723
0.14068
0.12896
0.082064
0.070341
-0.046894
-0.12896
-0.07034
0
0.070341
0.082064
0.11723
0.1524
0.17585
0.22274
0.16413
0.082064
0.023447
-0.011724
-0.011724
-0.058618
-0.046894
0
-0.011724
-0.10551
-0.046894
0.035171
-0.023447
0.023447
0.093787
0.082064
0.10551
0.21102
0.14068
-0.082064
-0.11723
-0.046894
-0.046894
-0.035171
-0.023447
-0.023447
0
0.035171
0.082064
0.093787
0.16413
0.21102
0.18758
0.1524
0.1524
0.082064
0.023447
-0.023447
0
0.023447
0.011724
-0.023447
-0.011724
0.058618
0.12896
0.16413
0.17585
0.1993
0.1993
0.16413
0.11723
0.070341
0.058618
0.023447
0
0
-0.11723
-0.10551
-0.16413
-0.12896
-0.10551
-0.07034
-0.14068
-0.12896
-0.058618
-0.058618
-0.058618
-0.07034
-0.023447
-0.011724
0
-0.035171
-0.023447
-0.023447
-0.011724
0.023447
0.093787
0.18758
0.12896
0.070341
0.046894
0.070341
0.10551
0.11723
0.17585
0.1993
0.11723
0.082064
0.046894
0.046894
0.082064
0.093787
0.082064
0.082064
0.070341
0.082064
0.082064
0.12896
0.11723
0.058618
0.035171
0.035171
0.070341
0.093787
0.093787
0.10551
0.10551
0.10551
0.10551
0.11723
0.10551
0.10551
0.11723
0.093787
0.070341
0.082064
0.093787
0.082064
0.070341
0.070341
0.093787
0.082064
0.10551
0.10551
0.093787
0.093787
0.070341
0.046894
0.070341
0.070341
0.082064
0.058618
0
0.023447
0.070341
0.11723
0.14068
0.12896
0.12896
0.1993
0.18758
0.1993
0.17585
0.1524
0.082064
0.035171
0.035171
0.023447
0.046894
-0.011724
-0.011724
-0.011724
-0.035171
-0.023447
-0.023447
0.011724
0.082064
0.023447
0.058618
0.082064
0.093787
0.070341
0.023447
0.070341
0.12896
0.12896
0.10551
0.070341
0.082064
0.082064
0.058618
-0.011724
0.011724
0.046894
0.046894
0.035171
0.035171
0.046894
0.10551
0.1524
0.1524
0.082064
0.11723
0.14068
0.11723
0.11723
0.093787
0.093787
0.10551
0.12896
0.14068
0.14068
0.10551
0.10551
0.11723
0.1524
0.11723
0.082064
0.11723
0.10551
0.082064
0.1524
0.1993
0.21102
0.18758
0.24619
0.16413
0.14068
0.10551
0.070341
0.035171
0.011724
0.023447
0.046894
0.082064
0.093787
0.10551
0.10551
0.14068
0.16413
0.18758
0.17585
0.22274
0.21102
0.14068
0.11723
0.070341
0.11723
0.17585
0.11723
0.093787
0.10551
0.082064
0.082064
0.082064
0.10551
0.1524
0.14068
0.12896
0.1524
0.18758
0.24619
0.25792
0.22274
0.17585
0.16413
0.1524
0.14068
0.11723
0.10551
0.10551
0.12896
0.1993
0.25792
0.28136
0.22274
0.11723
0.046894
0.023447
-0.058618
-0.082064
-0.058618
-0.046894
-0.046894
-0.046894
-0.07034
-0.058618
-0.058618
-0.035171
-0.011724
-0.011724
0.023447
0
-0.011724
-0.011724
-0.035171
-0.023447
-0.046894
-0.023447
-0.046894
-0.082064
-0.093787
-0.093787
-0.11723
-0.12896
-0.07034
-0.046894
-0.058618
-0.07034
-0.058618
-0.046894
-0.058618
-0.046894
-0.082064
-0.1524
-0.07034
-0.046894
-0.011724
-0.011724
-0.023447
-0.058618
-0.058618
-0.046894
-0.011724
0.011724
0.011724
0.011724
0
-0.035171
-0.046894
-0.023447
-0.023447
-0.023447
-0.023447
-0.011724
-0.011724
0.011724
0.035171
0.070341
0.046894
0.082064
0.082064
0.046894
0.046894
0.082064
0.11723
0.12896
0.10551
0.093787
0.070341
0.082064
0.10551
0.11723
0.14068
0.14068
0.22274
0.29309
0.31653
0.38687
0.3517
0.28136
0.25792
0.1993
0.23447
0.24619
0.1993
0.18758
0.093787
0.082064
0.058618
0.046894
0.082064
0.10551
0.12896
0.093787
0.10551
0.093787
0.11723
0.082064
0.058618
0.082064
0.10551
0.11723
0.093787
0.070341
0.035171
0.011724
-0.011724
-0.023447
0.023447
0.070341
0.046894
0.046894
0.046894
0.10551
0.070341
-0.011724
-0.07034
-0.07034
-0.023447
-0.023447
-0.046894
-0.023447
-0.046894
-0.035171
-0.035171
-0.14068
-0.17585
-0.10551
-0.035171
0
0.023447
0.035171
0.035171
0.046894
0.011724
-0.1524
-0.29309
-0.17585
0.058618
0.14068
0.10551
0.070341
0.082064
0.11723
0.12896
0.10551
0.093787
0.10551
0.093787
0.093787
0.093787
0.10551
0.11723
0.10551
0.10551
0.12896
0.12896
0.093787
0.12896
0.10551
0.11723
0.12896
0.11723
0.093787
0.070341
0.070341
0.046894
0.035171
0.023447
0.10551
-0.023447
-0.093787
-0.011724
-0.07034
-0.10551
-0.21102
-0.12896
-0.046894
0.011724
0
-0.046894
-0.058618
0
0.035171
0.058618
0.058618
0.046894
0.058618
0.046894
0.035171
0.046894
0.070341
0.070341
0.12896
0.14068
0.17585
0.17585
0.14068
0.093787
0.046894
-0.011724
-0.11723
-0.14068
-0.093787
-0.07034
0
0.046894
0.082064
0.082064
0.082064
0.093787
0.11723
0.093787
0.093787
0.046894
0.023447
0.011724
0.046894
0.070341
0.082064
0.046894
-0.023447
-0.082064
-0.11723
-0.093787
-0.093787
-0.16413
-0.11723
-0.12896
-0.14068
-0.10551
-0.14068
-0.07034
-0.07034
-0.058618
-0.011724
0
0.023447
-0.011724
-0.07034
-0.10551
-0.10551
-0.058618
0.023447
0.16413
0.24619
0.24619
0.23447
0.22274
0.1993
0.23447
0.23447
0.21102
0.1993
0.082064
0.035171
0
0.035171
0.046894
0.046894
0.082064
0.046894
0.035171
0.035171
0.011724
0.011724
0.035171
0.023447
-0.023447
0
0.011724
0
0
0.035171
0.035171
0.011724
0.023447
0.070341
-0.011724
-0.046894
-0.011724
-0.07034
-0.035171
-0.035171
-0.035171
-0.093787
-0.17585
-0.16413
-0.18758
-0.25792
-0.18758
-0.082064
-0.07034
-0.058618
-0.011724
0.011724
0.011724
0
0
-0.011724
-0.07034
-0.18758
-0.30481
-0.28136
-0.3517
-0.26964
-0.14068
-0.10551
0.058618
0.011724
-0.07034
0.11723
0.37515
0.31653
0.33998
0.33998
0.29309
0.24619
0.17585
0.11723
0.10551
0.093787
0.058618
0.046894
0.046894
-0.011724
-0.035171
-0.023447
0.011724
0
-0.011724
0
0.046894
0.082064
0.11723
0.1524
0.14068
0.14068
0.14068
0.12896
0.046894
-0.011724
-0.046894
-0.058618
-0.035171
-0.011724
-0.011724
0
0.011724
0.011724
0.046894
0.070341
-0.011724
0
0.023447
0.023447
0.046894
0.035171
0.10551
0.18758
0.12896
0.070341
0.058618
0
-0.011724
-0.035171
-0.035171
-0.023447
0
0
-0.023447
-0.035171
-0.046894
-0.035171
-0.058618
-0.058618
0.023447
0.082064
0.046894
0.070341
0.12896
0.10551
0.082064
0.058618
0.082064
0.093787
0.093787
0.093787
0.10551
0.11723
0.14068
0.12896
0.12896
0.14068
0.12896
0.11723
0.093787
0.046894
0.011724
0.011724
0
-0.023447
-0.023447
0
-0.023447
0
0
0.011724
-0.035171
0.023447
0.035171
-0.023447
-0.07034
-0.093787
-0.093787
-0.046894
-0.058618
-0.011724
0.023447
0.035171
0.035171
0.046894
0.035171
0.046894
0.046894
0.058618
0.058618
0.011724
0
0.023447
0.046894
0.058618
0.035171
0.023447
0.046894
0.12896
0.17585
0.18758
0.1993
0.21102
0.1524
0.082064
0.070341
0.070341
0.046894
0.082064
0.011724
0.011724
-0.046894
-0.07034
-0.046894
-0.023447
0.011724
0.046894
0.023447
-0.011724
0
-0.023447
-0.093787
-0.16413
-0.1993
-0.16413
-0.058618
-0.046894
-0.10551
-0.093787
-0.082064
-0.07034
-0.07034
-0.046894
-0.011724
-0.023447
-0.035171
-0.023447
0.035171
-0.011724
0
0.046894
0.011724
-0.058618
-0.082064
-0.07034
-0.023447
0.011724
0.023447
0.011724
0
-0.011724
-0.011724
0.035171
0.070341
0.023447
0.011724
0
0.046894
0.082064
0.082064
0.035171
0.035171
0.035171
0.058618
0.11723
0.22274
0.24619
0.1993
0.11723
0.046894
-0.046894
-0.12896
-0.14068
0
-0.023447
0.058618
0.070341
0.1524
0.1993
0.18758
0.17585
0.14068
0.11723
0.082064
0.070341
0.058618
-0.023447
-0.035171
-0.046894
-0.058618
-0.07034
-0.058618
-0.07034
-0.082064
-0.07034
-0.046894
-0.035171
-0.035171
-0.058618
-0.023447
-0.011724
0.035171
0.023447
0.011724
0.046894
0.058618
0.046894
0.046894
0.046894
0.046894
0
-0.035171
-0.011724
-0.035171
-0.035171
0
0.058618
-0.023447
-0.011724
0.046894
-0.07034
-0.082064
-0.07034
-0.093787
-0.082064
-0.058618
-0.058618
-0.07034
-0.093787
-0.11723
-0.12896
-0.093787
-0.058618
-0.023447
0.023447
0.023447
0
-0.011724
-0.058618
-0.07034
-0.023447
-0.035171
0
0
-0.011724
0.023447
0.046894
0.058618
0.046894
0.046894
0.082064
0.070341
0.093787
0.1524
0.12896
0.058618
0.011724
0.011724
0.058618
0.046894
-0.011724
0.011724
0.10551
0.11723
0.093787
0.082064
0.10551
0.082064
0.046894
0.058618
0.023447
0.023447
0.070341
0.046894
-0.011724
-0.023447
-0.011724
0.023447
0.058618
0.058618
0.058618
0.070341
0.035171
0.011724
0.035171
0.058618
0.046894
-0.011724
0.011724
-0.035171
-0.011724
-0.035171
0.011724
0.070341
0.14068
0.1524
0.1524
0.12896
0.093787
0.082064
0.070341
0.058618
0.093787
0.12896
0.023447
0.011724
0.046894
0.082064
0.17585
0.11723
0.11723
0.093787
0.082064
0.10551
0.082064
0.082064
0.046894
-0.011724
-0.011724
0
0.011724
0.035171
0.082064
0.10551
0.11723
0.10551
0.035171
0.023447
0.035171
0.023447
0.070341
0.1524
0.12896
0.058618
-0.011724
-0.023447
-0.011724
0
0.035171
0.046894
0.058618
0.046894
0
-0.023447
0
-0.011724
-0.023447
-0.011724
-0.023447
-0.023447
-0.035171
-0.058618
-0.035171
0.035171
0.023447
0.023447
0.023447
0.023447
0.035171
0.058618
0.11723
0.14068
0.1524
0.21102
0.26964
0.25792
0.21102
0.18758
0.11723
0.058618
0.070341
0.082064
0.093787
0.082064
0.058618
0.058618
0.070341
0.070341
0.11723
0.14068
0.14068
0.11723
0.093787
0.070341
0.023447
0
-0.035171
-0.07034
-0.058618
-0.046894
-0.023447
0.035171
0.046894
0.058618
0.082064
0.093787
0.093787
0.10551
0.14068
0.093787
0.046894
0.070341
0.070341
0.070341
0.082064
0.11723
0.093787
0.082064
0.035171
0.023447
0.011724
0.046894
0.082064
0.023447
0.023447
0.046894
0.046894
0.082064
0.11723
0.17585
0.16413
0.17585
0.18758
0.18758
0.16413
0.093787
0.082064
0.12896
0.24619
0.36343
0.36343
0.30481
0.21102
0.082064
0.011724
0.035171
-0.046894
-0.07034
-0.046894
-0.07034
-0.058618
-0.082064
-0.14068
-0.082064
-0.058618
-0.035171
-0.011724
-0.035171
-0.046894
-0.011724
-0.011724
-0.011724
0
-0.011724
-0.023447
-0.011724
0.011724
0.023447
0.035171
0.011724
0.035171
0.058618
0.023447
0.058618
0.070341
0.082064
0.070341
0.070341
0.082064
0.070341
0.082064
0.093787
0.10551
0.10551
0.070341
0.035171
0.023447
0.046894
0.035171
0.082064
0.035171
0.046894
0.023447
-0.035171
-0.035171
-0.058618
-0.046894
-0.023447
-0.046894
-0.07034
-0.058618
-0.07034
-0.093787
-0.058618
-0.058618
-0.058618
-0.046894
-0.011724
0
0.058618
0.11723
0.10551
0.093787
0
-0.16413
-0.21102
-0.082064
0.023447
-0.023447
-0.046894
0.035171
0.17585
0.25792
0.23447
0.23447
0.24619
0.24619
0.23447
0.1993
0.1524
0.1524
0.1524
0.18758
0.17585
0.11723
0.12896
0.14068
0.16413
0.1524
0.093787
0.058618
0.10551
0.070341
0.035171
0.023447
0.058618
0.035171
0.058618
0.035171
0.011724
0.011724
0.023447
0.082064
0.12896
0.14068
0.12896
0.035171
0.011724
0
-0.011724
-0.023447
0
0.011724
0.023447
0.093787
0.10551
0.11723
0.093787
0.046894
0.023447
0
0.011724
0.082064
0.1993
0.1524
0.1524
0.14068
0.1524
0.18758
0.1993
0.18758
0.1993
0.1993
0.1993
0.22274
0.22274
0.17585
0.12896
0.10551
0.082064
0.058618
0.082064
0.10551
0
-0.011724
-0.023447
-0.011724
0.046894
0.023447
0.023447
-0.023447
-0.035171
-0.046894
-0.035171
-0.011724
-0.035171
-0.058618
-0.082064
-0.07034
-0.035171
-0.011724
0
0
-0.011724
0.011724
0.046894
0.035171
0.023447
0.023447
0.011724
-0.011724
0.035171
-0.023447
0
0.011724
0
0
0
0.011724
0.070341
0.058618
0.035171
0.035171
0.070341
0.10551
0.12896
0.10551
0.11723
0.12896
0.058618
0.070341
0.023447
-0.011724
-0.058618
-0.07034
-0.011724
0.035171
0.046894
0
-0.046894
0
0.058618
0.16413
0.1993
0.14068
0.058618
0.023447
0
-0.023447
-0.023447
-0.011724
0.011724
0
-0.058618
-0.07034
-0.058618
-0.058618
-0.07034
-0.058618
-0.07034
-0.035171
-0.011724
0.011724
0.011724
-0.023447
-0.035171
-0.035171
-0.046894
0.011724
0.035171
0.035171
-0.07034
-0.023447
0.023447
0.023447
0.035171
0.046894
0.023447
0.058618
0.058618
0.070341
0.058618
0.058618
0.023447
0
0.011724
0.011724
0.023447
0.093787
0.21102
0.26964
0.30481
0.24619
0.1524
0.070341
0.093787
0.093787
0
-0.10551
-0.07034
-0.046894
-0.082064
-0.082064
-0.046894
-0.023447
0.011724
0
-0.035171
-0.023447
-0.023447
-0.035171
-0.046894
-0.035171
-0.023447
-0.011724
0
0.023447
0.035171
0.046894
0.035171
0.046894
0.070341
0.082064
0.023447
0.011724
-0.011724
-0.07034
-0.10551
-0.058618
-0.082064
-0.046894
-0.023447
-0.011724
0.011724
0.058618
0.082064
0.035171
0.023447
0.011724
0.058618
0.023447
0.011724
0.011724
0.035171
0.058618
0.046894
0.011724
0.011724
-0.023447
-0.058618
-0.023447
-0.082064
-0.082064
-0.18758
-0.37515
-0.093787
0.12896
0.082064
0.058618
0.011724
-0.058618
-0.046894
0
0.070341
0.12896
0.16413
0.16413
0.17585
0.22274
0.26964
0.22274
0.25792
0.1993
0.16413
0.12896
0.10551
0.093787
0.082064
0.046894
0.046894
0.035171
0.011724
-0.035171
-0.093787
-0.1524
-0.12896
-0.07034
-0.046894
-0.023447
0.070341
0.082064
0.082064
0.12896
0.11723
0.12896
0.11723
0.10551
0.11723
0.12896
0.14068
0.12896
0.14068
0.12896
0.10551
0.046894
0.023447
0.023447
-0.023447
-0.046894
-0.07034
-0.058618
-0.023447
0
-0.035171
-0.046894
-0.058618
-0.082064
-0.046894
-0.082064
-0.12896
-0.1524
-0.17585
-0.12896
-0.17585
-0.17585
-0.10551
-0.14068
-0.093787
-0.07034
-0.082064
-0.082064
-0.093787
-0.11723
-0.12896
-0.12896
-0.1524
-0.17585
-0.18758
-0.1524
-0.093787
-0.046894
-0.011724
-0.046894
-0.058618
-0.035171
-0.046894
-0.093787
-0.082064
-0.035171
-0.046894
-0.082064
-0.07034
-0.011724
0.058618
0.11723
0.17585
0.24619
0.30481
0.23447
0.1524
0.082064
0.082064
0.058618
0
-0.046894
-0.082064
-0.093787
-0.10551
-0.082064
-0.046894
-0.035171
-0.011724
0
0
0
0.011724
-0.046894
-0.07034
-0.07034
-0.082064
-0.14068
-0.11723
-0.046894
-0.035171
-0.093787
-0.035171
0.082064
0.12896
0.14068
0.1524
0.17585
0.24619
0.24619
0.1993
0.16413
0.11723
0.082064
0.10551
0.082064
0.10551
0.093787
0.082064
0.070341
0.058618
0.035171
0
-0.011724
-0.035171
-0.093787
-0.1524
-0.18758
-0.22274
-0.22274
-0.18758
-0.1993
-0.17585
-0.17585
-0.14068
-0.18758
-0.14068
-0.07034
0.023447
0.070341
0.070341
0.093787
0.14068
0.16413
0.12896
0.12896
0.14068
0.1524
0.17585
0.22274
0.26964
0.22274
0.16413
0.16413
0.1524
0.1524
0.16413
0.10551
0.011724
-0.023447
-0.023447
-0.093787
-0.082064
-0.093787
-0.058618
-0.07034
-0.093787
-0.10551
-0.12896
-0.14068
-0.1524
-0.14068
-0.11723
-0.082064
-0.07034
-0.082064
-0.011724
0.082064
0.1524
0.16413
0.18758
0.14068
0.12896
0.11723
0.070341
0.046894
0.046894
0
-0.023447
-0.07034
-0.10551
-0.10551
-0.058618
-0.082064
-0.046894
0.011724
0.035171
0
-0.058618
-0.07034
-0.058618
-0.035171
-0.035171
-0.035171
-0.011724
0.011724
0.035171
0.058618
0.082064
0.058618
-0.011724
-0.011724
-0.011724
-0.011724
0
0.011724
0.011724
0.011724
0.023447
0.023447
-0.023447
-0.058618
-0.07034
-0.058618
-0.07034
-0.14068
-0.17585
-0.1524
-0.1524
-0.14068
-0.14068
-0.14068
-0.1524
-0.18758
-0.18758
-0.17585
-0.17585
-0.18758
-0.16413
-0.1524
-0.046894
-0.11723
-0.14068
-0.093787
-0.1524
-0.093787
-0.14068
-0.12896
-0.10551
-0.093787
-0.082064
-0.07034
-0.046894
-0.023447
-0.011724
0
0.046894
0.082064
0.10551
0.058618
0.082064
0.058618
0.070341
0.023447
0.035171
0.058618
0.082064
0.093787
0.058618
-0.011724
-0.046894
-0.058618
-0.093787
-0.082064
-0.093787
-0.082064
-0.11723
-0.082064
-0.07034
-0.011724
0.058618
0.070341
0.058618
0.046894
0.023447
0.011724
-0.011724
-0.046894
-0.058618
-0.082064
-0.11723
-0.12896
-0.046894
-0.023447
0.046894
0.070341
0.070341
0.058618
0.035171
0
-0.023447
-0.046894
-0.023447
0.011724
0
-0.023447
0
0.011724
0.035171
0.023447
-0.011724
-0.046894
-0.035171
-0.082064
-0.07034
-0.07034
-0.07034
-0.046894
-0.035171
0
0.023447
0.082064
0.035171
-0.035171
-0.011724
-0.035171
0
0.023447
0.011724
0.023447
0.058618
0.12896
0.1993
0.24619
0.28136
0.28136
0.26964
0.22274
0.18758
0.17585
0.1524
0.1524
0.17585
0.1993
0.17585
0.11723
-0.046894
-0.21102
-0.023447
-0.011724
-0.058618
-0.07034
-0.046894
-0.046894
-0.011724
-0.023447
-0.16413
-0.28136
-0.18758
0
-0.011724
-0.023447
-0.023447
0.035171
0.070341
0.058618
0.011724
-0.011724
-0.011724
0
-0.011724
-0.035171
-0.023447
-0.011724
-0.011724
-0.023447
-0.035171
-0.035171
-0.035171
-0.023447
-0.011724
0.035171
0
-0.011724
-0.011724
-0.035171
-0.07034
-0.082064
-0.10551
-0.10551
-0.082064
-0.023447
-0.023447
-0.058618
-0.046894
-0.058618
-0.093787
-0.093787
-0.058618
0.011724
0.1524
0.070341
0.11723
0.12896
0.070341
0.082064
0.023447
-0.023447
-0.023447
0
0.023447
