
-0.046894
-0.046894
-0.046894
-0.046894
-0.023447
-0.011724
0
0.023447
0.035171
0.011724
0
0
0
0
0.011724
0.035171
0.046894
0.046894
0.070341
0.093787
0.11723
0.12896
0.14068
0.14068
0.14068
0.12896
0.093787
0.058618
0.023447
0
0
0
0
-0.011724
-0.035171
-0.046894
-0.046894
-0.035171
-0.046894
-0.07034
-0.082064
-0.093787
-0.093787
-0.082064
-0.058618
-0.035171
-0.011724
0.011724
0.023447
0
-0.023447
-0.035171
-0.011724
0.011724
0.011724
0.011724
0.011724
0.035171
0.046894
0.058618
0.082064
0.058618
0.035171
0.023447
0.023447
0.023447
0.035171
0.046894
0.070341
0.082064
0.093787
0.10551
0.11723
0.14068
0.14068
0.12896
0.11723
0.11723
0.11723
0.11723
0.12896
0.14068
0.1524
0.1524
0.16413
0.16413
0.16413
0.1524
0.1524
0.12896
0.093787
0.10551
0.11723
0.11723
0.10551
0.10551
0.10551
0.10551
0.12896
0.14068
0.14068
0.1524
0.16413
0.18758
0.18758
0.18758
0.1993
0.1993
0.21102
0.22274
0.23447
0.23447
0.23447
0.24619
0.24619
0.25792
0.24619
0.25792
0.25792
0.25792
0.22274
0.1993
0.17585
0.17585
0.18758
0.18758
0.18758
0.1993
0.1993
0.1993
0.21102
0.1993
0.17585
0.1524
0.14068
0.14068
0.1524
0.1524
0.1524
0.14068
0.12896
0.11723
0.10551
0.12896
0.14068
0.14068
0.11723
0.11723
0.16413
0.1993
0.23447
0.28136
0.31653
0.32826
0.31653
0.28136
0.26964
0.1993
0.10551
0.035171
0.011724
0.023447
0.035171
0.046894
0.035171
0.023447
0.011724
0.035171
0.046894
0.046894
0.070341
0.082064
0.093787
0.11723
0.1524
0.1524
0.1524
0.1524
0.1524
0.1524
0.17585
0.1993
0.21102
0.21102
0.21102
0.21102
0.21102
0.21102
0.21102
0.18758
0.17585
0.1993
0.23447
0.24619
0.22274
0.18758
0.16413
0.14068
0.11723
0.16413
0.32826
0.50411
0.53928
0.46894
0.41032
0.38687
0.36343
0.29309
0.23447
0.1993
0.1524
0.093787
0.10551
0.11723
0.10551
0.082064
0.082064
0.10551
0.10551
0.082064
0.058618
0.046894
0.046894
0.046894
0.035171
0.046894
0.058618
0.082064
0.070341
0.046894
0.070341
0.093787
0.10551
0.10551
0.093787
0.11723
0.12896
0.14068
0.14068
0.12896
0.14068
0.12896
0.12896
0.1524
0.1524
0.14068
0.12896
0.12896
0.12896
0.14068
0.16413
0.16413
0.1524
0.14068
0.10551
0.058618
0.046894
0.023447
0.023447
0.035171
0.035171
0.035171
0.046894
0.046894
0.046894
0.058618
0.082064
0.082064
0.082064
0.082064
0.058618
0.058618
0.058618
0.023447
0.023447
0.058618
0.046894
0.035171
0.046894
0.058618
0.070341
0.070341
0.070341
0.058618
0.046894
0.023447
0
-0.011724
0.011724
0.011724
0
0
0.011724
0.035171
0.035171
0.011724
0.023447
0.035171
0.023447
0.035171
0.046894
0.046894
0.046894
0.046894
0.058618
0.046894
0.058618
0.058618
0.070341
0.082064
0.082064
0.10551
0.11723
0.12896
0.12896
0.12896
0.14068
0.14068
0.1524
0.16413
0.14068
0.14068
0.14068
0.14068
0.1524
0.17585
0.18758
0.1993
0.22274
0.21102
0.22274
0.23447
0.25792
0.28136
0.26964
0.26964
0.25792
0.25792
0.24619
0.23447
0.24619
0.23447
0.24619
0.26964
0.26964
0.26964
0.28136
0.28136
0.24619
0.22274
0.1993
0.18758
0.16413
0.16413
0.18758
0.23447
0.24619
0.22274
0.1993
0.17585
0.17585
0.16413
0.14068
0.14068
0.12896
0.12896
0.14068
0.14068
0.14068
0.12896
0.11723
0.10551
0.11723
0.10551
0.082064
0.070341
0.093787
0.11723
0.14068
0.18758
0.21102
0.23447
0.23447
0.22274
0.1993
0.18758
0.11723
0.023447
-0.011724
0.011724
0.058618
0.12896
0.14068
0.16413
0.18758
0.21102
0.21102
0.21102
0.21102
0.22274
0.24619
0.24619
0.23447
0.22274
0.23447
0.22274
0.21102
0.22274
0.21102
0.16413
0.12896
0.11723
0.11723
0.12896
0.16413
0.21102
0.22274
0.22274
0.23447
0.24619
0.23447
0.23447
0.24619
0.24619
0.23447
0.22274
0.22274
0.22274
0.25792
0.42204
0.551
0.551
0.49238
0.45721
0.42204
0.38687
0.32826
0.28136
0.23447
0.17585
0.11723
0.058618
0.035171
0.023447
0.023447
0.023447
0.023447
0.011724
-0.011724
-0.023447
-0.046894
-0.058618
-0.058618
-0.046894
-0.035171
-0.035171
-0.046894
-0.058618
-0.035171
-0.023447
-0.023447
-0.011724
0
0.023447
0.058618
0.070341
0.058618
0.035171
0.011724
0
-0.023447
-0.035171
-0.046894
-0.07034
-0.082064
-0.07034
-0.058618
-0.058618
-0.035171
-0.035171
-0.023447
-0.011724
0.011724
0.023447
0.046894
0.046894
0.058618
0.070341
0.058618
0.046894
0.023447
0.035171
0.023447
-0.011724
-0.023447
-0.035171
-0.058618
-0.093787
-0.082064
-0.10551
-0.12896
-0.1524
-0.14068
-0.12896
-0.11723
-0.082064
-0.046894
-0.023447
-0.011724
0.011724
0.035171
0.035171
0.058618
0.035171
0.035171
0.046894
0.058618
0.070341
0.093787
0.093787
0.070341
0.058618
0.058618
0.035171
0.023447
0.023447
0.046894
0.046894
0.058618
0.058618
0.082064
0.11723
0.14068
0.17585
0.21102
0.22274
0.21102
0.22274
0.21102
0.1993
0.18758
0.18758
0.17585
0.17585
0.18758
0.21102
0.1993
0.18758
0.16413
0.14068
0.14068
0.1524
0.14068
0.1524
0.1524
0.16413
0.17585
0.1993
0.1993
0.1993
0.18758
0.1993
0.18758
0.16413
0.1524
0.1524
0.1524
0.14068
0.14068
0.12896
0.12896
0.12896
0.12896
0.1524
0.1524
0.16413
0.1524
0.1524
0.16413
0.1524
0.12896
0.10551
0.12896
0.12896
0.1524
0.1524
0.16413
0.17585
0.18758
0.18758
0.1993
0.1993
0.1993
0.1993
0.1993
0.18758
0.1993
0.18758
0.16413
0.16413
0.16413
0.12896
0.12896
0.11723
0.10551
0.093787
0.082064
0.082064
0.10551
0.12896
0.14068
0.1524
0.17585
0.23447
0.28136
0.30481
0.28136
0.22274
0.1993
0.1993
0.12896
0.035171
0.035171
0.070341
0.11723
0.1524
0.1524
0.12896
0.12896
0.14068
0.1524
0.14068
0.1524
0.17585
0.16413
0.16413
0.17585
0.17585
0.1524
0.16413
0.17585
0.18758
0.18758
0.18758
0.17585
0.18758
0.23447
0.24619
0.26964
0.28136
0.28136
0.29309
0.28136
0.26964
0.23447
0.22274
0.22274
0.24619
0.23447
0.22274
0.21102
0.21102
0.25792
0.41032
0.52755
0.52755
0.46894
0.41032
0.3517
0.30481
0.22274
0.16413
0.12896
0.11723
0.093787
0.10551
0.10551
0.093787
0.082064
0.070341
0.058618
0.058618
0.070341
0.058618
0.058618
0.046894
0.070341
0.058618
0.058618
0.093787
0.11723
0.12896
0.12896
0.12896
0.11723
0.093787
0.082064
0.070341
0.070341
0.058618
0.046894
0.046894
0.058618
0.046894
0.046894
0.058618
0.070341
0.093787
0.10551
0.10551
0.082064
0.082064
0.10551
0.12896
0.11723
0.093787
0.093787
0.10551
0.11723
0.12896
0.14068
0.14068
0.14068
0.14068
0.12896
0.12896
0.11723
0.11723
0.10551
0.11723
0.12896
0.10551
0.093787
0.082064
0.070341
0.058618
0.035171
0.011724
0.023447
0.011724
0.011724
0.035171
0.046894
0.046894
0.058618
0.10551
0.11723
0.12896
0.12896
0.14068
0.16413
0.1993
0.21102
0.21102
0.22274
0.23447
0.24619
0.25792
0.26964
0.29309
0.28136
0.24619
0.22274
0.21102
0.1993
0.18758
0.1524
0.11723
0.093787
0.093787
0.093787
0.070341
0.035171
0.023447
0.035171
0.035171
0.023447
0.023447
0.035171
0.035171
0.046894
0.046894
0.070341
0.082064
0.093787
0.11723
0.14068
0.14068
0.12896
0.12896
0.11723
0.12896
0.12896
0.14068
0.1524
0.18758
0.18758
0.18758
0.17585
0.1524
0.10551
0.12896
0.14068
0.14068
0.14068
0.1524
0.1524
0.16413
0.17585
0.17585
0.18758
0.17585
0.17585
0.1524
0.11723
0.093787
0.10551
0.093787
0.082064
0.070341
0.058618
0.070341
0.082064
0.070341
0.082064
0.093787
0.10551
0.12896
0.1524
0.18758
0.18758
0.1993
0.21102
0.22274
0.23447
0.24619
0.24619
0.24619
0.25792
0.26964
0.26964
0.28136
0.26964
0.25792
0.25792
0.24619
0.24619
0.23447
0.22274
0.21102
0.21102
0.21102
0.24619
0.28136
0.30481
0.29309
0.28136
0.28136
0.24619
0.1524
0.011724
-0.023447
0
0.046894
0.070341
0.058618
0.023447
0.023447
0.070341
0.082064
0.082064
0.082064
0.082064
0.093787
0.093787
0.093787
0.10551
0.11723
0.12896
0.14068
0.12896
0.12896
0.1524
0.1524
0.14068
0.14068
0.16413
0.1993
0.22274
0.25792
0.25792
0.24619
0.25792
0.23447
0.18758
0.17585
0.14068
0.070341
0.070341
0.058618
0.058618
0.10551
0.25792
0.43377
0.49238
0.45721
0.38687
0.32826
0.28136
0.22274
0.18758
0.16413
0.1524
0.12896
0.093787
0.070341
0.058618
0.070341
0.058618
0.070341
0.082064
0.082064
0.070341
0.023447
0.023447
0.011724
0.011724
0.035171
0.046894
0.046894
0.058618
0.082064
0.10551
0.10551
0.082064
0.070341
0.070341
0.070341
0.082064
0.10551
0.12896
0.14068
0.14068
0.14068
0.14068
0.14068
0.12896
0.11723
0.10551
0.082064
0.058618
0.046894
0.058618
0.058618
0.070341
0.070341
0.070341
0.082064
0.058618
0.046894
0.035171
0.046894
0.023447
0.011724
0
0
0.011724
-0.011724
-0.035171
-0.058618
-0.058618
-0.046894
-0.058618
-0.046894
-0.023447
-0.011724
0.023447
0.023447
0.046894
0.070341
0.093787
0.093787
0.093787
0.093787
0.070341
0.070341
0.082064
0.082064
0.093787
0.10551
0.12896
0.14068
0.1524
0.17585
0.17585
0.17585
0.1524
0.12896
0.10551
0.11723
0.10551
0.10551
0.10551
0.11723
0.11723
0.14068
0.16413
0.18758
0.18758
0.1993
0.21102
0.22274
0.21102
0.1993
0.18758
0.17585
0.17585
0.18758
0.21102
0.22274
0.24619
0.25792
0.24619
0.22274
0.24619
0.24619
0.22274
0.17585
0.17585
0.17585
0.16413
0.14068
0.14068
0.14068
0.12896
0.1524
0.16413
0.18758
0.21102
0.23447
0.22274
0.22274
0.18758
0.16413
0.1524
0.16413
0.17585
0.18758
0.16413
0.12896
0.093787
0.082064
0.070341
0.058618
0.035171
0.035171
0.035171
0.023447
0.011724
-0.011724
-0.023447
-0.011724
-0.011724
-0.023447
-0.011724
0
0
0
0.011724
0.046894
0.070341
0.082064
0.11723
0.10551
0.10551
0.093787
0.070341
0.058618
0.070341
0.10551
0.11723
0.14068
0.14068
0.10551
0.058618
0.046894
0.046894
0.058618
0.058618
0.070341
0.093787
0.14068
0.17585
0.22274
0.23447
0.1993
0.17585
0.16413
0.070341
-0.023447
-0.035171
0.023447
0.093787
0.12896
0.14068
0.12896
0.16413
0.17585
0.1993
0.18758
0.17585
0.16413
0.1524
0.1524
0.14068
0.12896
0.12896
0.11723
0.12896
0.12896
0.12896
0.10551
0.093787
0.10551
0.11723
0.14068
0.16413
0.17585
0.18758
0.18758
0.1993
0.1993
0.22274
0.24619
0.25792
0.26964
0.29309
0.30481
0.30481
0.28136
0.30481
0.41032
0.58617
0.65651
0.62134
0.53928
0.45721
0.41032
0.36343
0.31653
0.25792
0.21102
0.18758
0.1524
0.16413
0.16413
0.1524
0.14068
0.14068
0.14068
0.12896
0.14068
0.14068
0.11723
0.11723
0.10551
0.093787
0.093787
0.082064
0.070341
0.070341
0.058618
0.046894
0.035171
0.035171
0.035171
0.035171
0
-0.035171
-0.046894
-0.046894
-0.058618
-0.046894
-0.046894
-0.046894
-0.046894
-0.035171
-0.035171
-0.035171
-0.058618
-0.082064
-0.082064
-0.093787
-0.10551
-0.093787
-0.082064
-0.07034
-0.058618
-0.058618
-0.046894
-0.011724
0.011724
0
0.011724
0.023447
0.058618
0.082064
0.070341
0.046894
0.046894
0.035171
0.046894
0.023447
0.023447
0.023447
0.035171
0.046894
0.070341
0.070341
0.070341
0.10551
0.10551
0.12896
0.1524
0.16413
0.16413
0.17585
0.22274
0.23447
0.21102
0.21102
0.23447
0.25792
0.24619
0.22274
0.18758
0.16413
0.17585
0.17585
0.16413
0.14068
0.11723
0.11723
0.11723
0.11723
0.11723
0.14068
0.1524
0.16413
0.1524
0.1524
0.14068
0.14068
0.1524
0.1524
0.1524
0.12896
0.14068
0.16413
0.21102
0.22274
0.23447
0.22274
0.21102
0.21102
0.21102
0.21102
0.1993
0.18758
0.17585
0.17585
0.17585
0.16413
0.16413
0.16413
0.1524
0.14068
0.12896
0.11723
0.093787
0.058618
0.046894
0.046894
0.070341
0.093787
0.11723
0.14068
0.1524
0.1524
0.1524
0.1524
0.14068
0.14068
0.14068
0.11723
0.093787
0.10551
0.11723
0.14068
0.16413
0.17585
0.16413
0.12896
0.12896
0.10551
0.093787
0.093787
0.093787
0.10551
0.12896
0.1524
0.14068
0.12896
0.11723
0.12896
0.14068
0.14068
0.12896
0.14068
0.1524
0.1524
0.11723
0.058618
0.011724
0.023447
0.011724
0.011724
0.023447
0.035171
0.046894
0.058618
0.058618
0.070341
0.070341
0.070341
0.093787
0.10551
0.14068
0.18758
0.24619
0.29309
0.32826
0.32826
0.26964
0.24619
0.22274
0.12896
0.011724
-0.035171
0.011724
0.058618
0.10551
0.10551
0.082064
0.070341
0.082064
0.058618
0.035171
0.035171
0.046894
0.058618
0.058618
0.082064
0.10551
0.12896
0.1524
0.17585
0.17585
0.18758
0.1993
0.22274
0.23447
0.22274
0.22274
0.22274
0.23447
0.24619
0.23447
0.25792
0.26964
0.25792
0.24619
0.21102
0.17585
0.16413
0.16413
0.1524
0.1524
0.18758
0.30481
0.50411
0.58617
0.52755
0.45721
0.43377
0.3986
0.36343
0.29309
0.22274
0.1993
0.17585
0.16413
0.1524
0.12896
0.11723
0.10551
0.093787
0.082064
0.070341
0.070341
0.058618
0.046894
0.035171
0.058618
0.058618
0.070341
0.058618
0.058618
0.070341
0.058618
0.058618
0.058618
0.046894
0.035171
0.035171
0.035171
0.046894
0.046894
0.070341
0.082064
0.082064
0.10551
0.11723
0.10551
0.10551
0.093787
0.11723
0.11723
0.11723
0.12896
0.082064
0.023447
-0.011724
-0.023447
-0.035171
-0.023447
-0.011724
0.011724
0.023447
0.011724
-0.011724
-0.011724
-0.035171
-0.058618
-0.058618
-0.058618
-0.058618
-0.058618
-0.058618
-0.082064
-0.10551
-0.14068
-0.14068
-0.14068
-0.11723
-0.093787
-0.07034
-0.07034
-0.058618
-0.035171
-0.023447
0
0.058618
0.093787
0.11723
0.12896
0.1524
0.16413
0.17585
0.17585
0.1524
0.16413
0.16413
0.17585
0.18758
0.18758
0.21102
0.23447
0.24619
0.24619
0.22274
0.1993
0.1993
0.18758
0.1993
0.1993
0.22274
0.22274
0.23447
0.23447
0.25792
0.24619
0.23447
0.24619
0.24619
0.25792
0.25792
0.25792
0.24619
0.23447
0.22274
0.22274
0.24619
0.24619
0.25792
0.24619
0.23447
0.21102
0.23447
0.24619
0.25792
0.24619
0.24619
0.26964
0.25792
0.25792
0.25792
0.24619
0.23447
0.23447
0.24619
0.23447
0.21102
0.17585
0.17585
0.16413
0.17585
0.16413
0.14068
0.11723
0.093787
0.093787
0.093787
0.082064
0.082064
0.082064
0.082064
0.070341
0.070341
0.082064
0.093787
0.070341
0.070341
0.082064
0.10551
0.093787
0.082064
0.070341
0.070341
0.082064
0.082064
0.070341
0.058618
0.058618
0.058618
0.093787
0.12896
0.14068
0.14068
0.11723
0.11723
0.12896
0.12896
0.14068
0.14068
0.16413
0.14068
0.12896
0.11723
0.10551
0.093787
0.11723
0.12896
0.14068
0.16413
0.16413
0.18758
0.22274
0.25792
0.29309
0.31653
0.32826
0.30481
0.26964
0.24619
0.17585
0.082064
0.011724
0.023447
0.058618
0.093787
0.11723
0.12896
0.12896
0.14068
0.16413
0.16413
0.1524
0.16413
0.16413
0.18758
0.18758
0.1993
0.23447
0.23447
0.21102
0.18758
0.18758
0.18758
0.18758
0.18758
0.16413
0.17585
0.18758
0.1993
0.18758
0.17585
0.17585
0.17585
0.18758
0.16413
0.14068
0.12896
0.10551
0.10551
0.10551
0.10551
0.11723
0.16413
0.33998
0.46894
0.48066
0.3986
0.32826
0.29309
0.25792
0.18758
0.14068
0.10551
0.093787
0.093787
0.11723
0.11723
0.093787
0.070341
0.046894
0.070341
0.10551
0.14068
0.16413
0.1524
0.16413
0.16413
0.16413
0.16413
0.1524
0.14068
0.12896
0.11723
0.14068
0.14068
0.14068
0.14068
0.1524
0.16413
0.1524
0.14068
0.12896
0.11723
0.11723
0.14068
0.1524
0.14068
0.14068
0.12896
0.14068
0.11723
0.093787
0.070341
0.093787
0.10551
0.10551
0.10551
0.093787
0.082064
0.070341
0.058618
0.070341
0.070341
0.070341
0.070341
0.070341
0.070341
0.070341
0.058618
0.058618
0.058618
0.058618
0.046894
0.035171
0.046894
0.046894
0.046894
0.011724
0
-0.011724
-0.023447
0
0.023447
0.035171
0.058618
0.082064
0.11723
0.12896
0.12896
0.11723
0.12896
0.1524
0.14068
0.14068
0.14068
0.1524
0.1524
0.14068
0.11723
0.10551
0.11723
0.12896
0.11723
0.14068
0.14068
0.12896
0.11723
0.12896
0.11723
0.10551
0.10551
0.11723
0.10551
0.12896
0.14068
0.17585
0.18758
0.17585
0.17585
0.18758
0.1993
0.1993
0.21102
0.21102
0.18758
0.17585
0.16413
0.18758
0.21102
0.21102
0.22274
0.22274
0.23447
0.25792
0.25792
0.24619
0.25792
0.24619
0.25792
0.25792
0.26964
0.28136
0.26964
0.25792
0.23447
0.22274
0.1993
0.18758
0.17585
0.17585
0.18758
0.18758
0.1524
0.11723
0.12896
0.12896
0.10551
0.11723
0.11723
0.14068
0.16413
0.16413
0.16413
0.1524
0.14068
0.1524
0.14068
0.14068
0.14068
0.1524
0.1524
0.1524
0.1524
0.1524
0.16413
0.17585
0.17585
0.17585
0.17585
0.17585
0.18758
0.1993
0.21102
0.21102
0.1993
0.21102
0.22274
0.22274
0.23447
0.24619
0.25792
0.24619
0.24619
0.23447
0.22274
0.21102
0.21102
0.1993
0.18758
0.18758
0.1993
0.21102
0.23447
0.22274
0.22274
0.24619
0.28136
0.30481
0.31653
0.29309
0.25792
0.23447
0.17585
0.082064
0
0
0.058618
0.12896
0.17585
0.1524
0.11723
0.082064
0.10551
0.11723
0.12896
0.12896
0.12896
0.14068
0.12896
0.12896
0.12896
0.12896
0.11723
0.082064
0.070341
0.058618
0.046894
0.058618
0.082064
0.093787
0.12896
0.18758
0.18758
0.17585
0.1524
0.1524
0.16413
0.16413
0.1524
0.1524
0.1524
0.16413
0.1524
0.14068
0.14068
0.17585
0.31653
0.50411
0.53928
0.48066
0.41032
0.37515
0.3517
0.29309
0.24619
0.22274
0.21102
0.1993
0.18758
0.17585
0.18758
0.18758
0.18758
0.18758
0.17585
0.17585
0.1524
0.1524
0.1524
0.16413
0.18758
0.18758
0.17585
0.16413
0.16413
0.1524
0.16413
0.17585
0.1524
0.14068
0.11723
0.12896
0.11723
0.11723
0.10551
0.10551
0.10551
0.11723
0.12896
0.14068
0.14068
0.14068
0.12896
0.11723
0.11723
0.11723
0.11723
0.10551
0.10551
0.070341
0.035171
0.035171
0.046894
0.046894
0.011724
-0.011724
0
0.023447
0.035171
0.023447
0.011724
0
0
-0.011724
0
0
0.023447
0.046894
0.058618
0.10551
0.082064
0.070341
0.070341
0.082064
0.093787
0.11723
0.11723
0.12896
0.14068
0.11723
0.082064
0.035171
0.011724
0.011724
0.011724
0.011724
0
0
0.011724
0.035171
0.058618
0.070341
0.093787
0.10551
0.093787
0.10551
0.082064
0.082064
0.093787
0.11723
0.11723
0.12896
0.14068
0.12896
0.14068
0.12896
0.1524
0.1524
0.17585
0.1993
0.1993
0.22274
0.22274
0.22274
0.1993
0.17585
0.16413
0.16413
0.17585
0.17585
0.18758
0.21102
0.23447
0.22274
0.21102
0.17585
0.1524
0.1524
0.1524
0.12896
0.12896
0.12896
0.11723
0.12896
0.12896
0.11723
0.12896
0.14068
0.16413
0.17585
0.17585
0.17585
0.16413
0.1524
0.1524
0.1524
0.16413
0.16413
0.1524
0.16413
0.17585
0.17585
0.16413
0.14068
0.12896
0.12896
0.12896
0.12896
0.12896
0.14068
0.14068
0.11723
0.082064
0.070341
0.082064
0.11723
0.11723
0.10551
0.10551
0.11723
0.14068
0.12896
0.12896
0.12896
0.14068
0.1524
0.1524
0.14068
0.16413
0.17585
0.18758
0.1993
0.18758
0.1993
0.1993
0.18758
0.1993
0.1993
0.17585
0.16413
0.12896
0.10551
0.093787
0.10551
0.093787
0.082064
0.10551
0.082064
0.082064
0.070341
0.046894
0.035171
0.023447
0.035171
0.058618
0.070341
0.082064
0.12896
0.14068
0.1524
0.16413
0.16413
0.16413
0.1524
0.082064
0
-0.011724
0.011724
0.035171
0.023447
0.046894
0.070341
0.093787
0.11723
0.12896
0.14068
0.16413
0.14068
0.1524
0.16413
0.18758
0.1993
0.21102
0.18758
0.18758
0.17585
0.17585
0.1993
0.21102
0.23447
0.24619
0.25792
0.26964
0.26964
0.28136
0.28136
0.26964
0.25792
0.24619
0.1993
0.17585
0.17585
0.17585
0.17585
0.18758
0.17585
0.17585
0.24619
0.41032
0.49238
0.44549
0.3517
0.28136
0.23447
0.1993
0.1524
0.10551
0.058618
0.011724
0.011724
0.046894
0.070341
0.082064
0.093787
0.10551
0.093787
0.082064
0.082064
0.082064
0.058618
0.046894
0.035171
0.035171
0.046894
0.035171
0.023447
0.035171
0.035171
0.046894
0.046894
0.070341
0.070341
0.035171
0.011724
0
0.011724
0.035171
0.011724
0.011724
0.023447
0.046894
0.058618
0.058618
0.035171
0.023447
0.035171
0.058618
0.093787
0.082064
0.10551
0.11723
0.10551
0.082064
0.093787
0.093787
0.082064
0.070341
0.046894
0.035171
0
-0.011724
-0.023447
-0.046894
-0.07034
-0.082064
-0.093787
-0.082064
-0.082064
-0.07034
-0.082064
-0.082064
-0.058618
-0.035171
-0.011724
-0.011724
0.011724
0.035171
0.058618
0.10551
0.11723
0.12896
0.12896
0.1524
0.17585
0.17585
0.18758
0.1993
0.22274
0.24619
0.23447
0.22274
0.18758
0.14068
0.12896
0.11723
0.12896
0.14068
0.17585
0.18758
0.18758
0.18758
0.21102
0.22274
0.1993
0.18758
0.17585
0.18758
0.18758
0.18758
0.16413
0.16413
0.1993
0.22274
0.21102
0.17585
0.17585
0.1524
0.14068
0.14068
0.1524
0.17585
0.18758
0.1993
0.18758
0.16413
0.12896
0.11723
0.10551
0.10551
0.12896
0.11723
0.14068
0.1524
0.14068
0.14068
0.16413
0.16413
0.1524
0.1524
0.17585
0.18758
0.18758
0.1993
0.17585
0.17585
0.21102
0.21102
0.1993
0.18758
0.23447
0.25792
0.23447
0.1993
0.18758
0.16413
0.1524
0.12896
0.12896
0.11723
0.11723
0.12896
0.12896
0.12896
0.14068
0.1524
0.1524
0.16413
0.16413
0.17585
0.17585
0.16413
0.14068
0.10551
0.10551
0.12896
0.1524
0.1524
0.1524
0.1524
0.16413
0.1993
0.21102
0.21102
0.23447
0.22274
0.24619
0.21102
0.17585
0.16413
0.18758
0.1993
0.21102
0.21102
0.21102
0.1993
0.1993
0.16413
0.14068
0.11723
0.11723
0.11723
0.12896
0.1524
0.1524
0.17585
0.1993
0.1993
0.21102
0.24619
0.29309
0.31653
0.31653
0.28136
0.25792
0.24619
0.18758
0.082064
0.046894
0.046894
0.070341
0.093787
0.10551
0.10551
0.058618
0.023447
0.035171
0.070341
0.082064
0.082064
0.10551
0.093787
0.093787
0.046894
0.035171
0.070341
0.070341
0.058618
0.035171
0.011724
0
0.011724
0
0.011724
0.035171
0.023447
0.046894
0.058618
0.082064
0.12896
0.1524
0.1993
0.22274
0.23447
0.25792
0.24619
0.24619
0.23447
0.22274
0.25792
0.3517
0.51583
0.58617
0.51583
0.3986
0.33998
0.29309
0.25792
0.21102
0.17585
0.18758
0.17585
0.18758
0.21102
0.22274
0.21102
0.1993
0.1524
0.11723
0.10551
0.10551
0.082064
0.082064
0.070341
0.070341
0.058618
0.058618
0.070341
0.070341
0.082064
0.10551
0.10551
0.10551
0.11723
0.093787
0.093787
0.10551
0.11723
0.12896
0.10551
0.082064
0.082064
0.082064
0.082064
0.10551
0.082064
0.070341
0.058618
0.046894
0.035171
0.035171
0.046894
0.046894
0.058618
0.070341
0.093787
0.093787
0.093787
0.093787
0.10551
0.11723
0.14068
0.11723
0.093787
0.082064
0.070341
0.082064
0.10551
0.093787
0.058618
0
0.011724
0.011724
0.035171
0.058618
0.070341
0.058618
0.058618
0.070341
0.070341
0.082064
0.082064
0.10551
0.14068
0.1524
0.1524
0.11723
0.10551
0.11723
0.14068
0.14068
0.14068
0.1524
0.1524
0.16413
0.1524
0.14068
0.16413
0.18758
0.18758
0.1993
0.22274
0.21102
0.18758
0.17585
0.16413
0.16413
0.16413
0.18758
0.21102
0.23447
0.24619
0.25792
0.24619
0.23447
0.22274
0.21102
0.1993
0.21102
0.21102
0.21102
0.22274
0.24619
0.24619
0.22274
0.23447
0.22274
0.23447
0.22274
0.1993
0.18758
0.1993
0.18758
0.18758
0.16413
0.17585
0.18758
0.18758
0.18758
0.17585
0.16413
0.1524
0.16413
0.14068
0.11723
0.093787
0.12896
0.14068
0.16413
0.18758
0.1993
0.1993
0.1993
0.17585
0.16413
0.1524
0.11723
0.11723
0.12896
0.14068
0.14068
0.11723
0.10551
0.10551
0.11723
0.14068
0.14068
0.10551
0.11723
0.093787
0.10551
0.10551
0.11723
0.14068
0.1524
0.1524
0.1524
0.1524
0.12896
0.12896
0.12896
0.1524
0.14068
0.12896
0.10551
0.10551
0.11723
0.14068
0.1524
0.1524
0.11723
0.11723
0.10551
0.093787
0.082064
0.11723
0.12896
0.14068
0.11723
0.082064
0.035171
0.035171
0.058618
0.070341
0.10551
0.1524
0.21102
0.23447
0.23447
0.1993
0.18758
0.14068
0.058618
-0.023447
-0.023447
0.011724
0.058618
0.10551
0.12896
0.11723
0.14068
0.17585
0.21102
0.1993
0.21102
0.21102
0.21102
0.1993
0.1993
0.18758
0.18758
0.16413
0.16413
0.1524
0.12896
0.12896
0.14068
0.16413
0.16413
0.17585
0.17585
0.16413
0.1524
0.11723
0.11723
0.12896
0.1524
0.17585
0.17585
0.17585
0.17585
0.1993
0.22274
0.24619
0.29309
0.36343
0.56273
0.71513
0.70341
0.63307
0.551
0.49238
0.45721
0.37515
0.30481
0.26964
0.24619
0.25792
0.25792
0.24619
0.23447
0.23447
0.21102
0.1993
0.17585
0.1524
0.1524
0.14068
0.14068
0.1524
0.14068
0.11723
0.10551
0.082064
0.046894
0.035171
0.058618
0.070341
0.093787
0.11723
0.093787
0.058618
0.023447
-0.011724
0
0.011724
0.035171
0.035171
0.046894
0.058618
0.058618
0.046894
0.023447
0
0
-0.011724
-0.035171
-0.023447
-0.035171
-0.035171
-0.023447
0
0.011724
0.011724
0
-0.023447
-0.07034
-0.07034
-0.058618
-0.07034
-0.058618
-0.07034
-0.07034
-0.082064
-0.058618
-0.023447
0
0.023447
0
-0.011724
-0.035171
-0.058618
-0.058618
-0.07034
-0.093787
-0.082064
-0.046894
0
0.023447
0.023447
0.046894
0.046894
0.046894
0.058618
0.046894
0.035171
0.035171
0.035171
0.070341
0.082064
0.082064
0.093787
0.10551
0.10551
0.093787
0.058618
0.046894
0.058618
0.082064
0.10551
0.10551
0.12896
0.14068
0.1524
0.16413
0.18758
0.16413
0.16413
0.17585
0.17585
0.16413
0.17585
0.18758
0.16413
0.12896
0.14068
0.16413
0.17585
0.17585
0.17585
0.1993
0.21102
0.1993
0.18758
0.17585
0.18758
0.18758
0.18758
0.1993
0.1993
0.22274
0.24619
0.28136
0.25792
0.24619
0.22274
0.18758
0.16413
0.12896
0.11723
0.10551
0.10551
0.10551
0.082064
0.058618
0.082064
0.058618
0.070341
0.093787
0.10551
0.10551
0.10551
0.10551
0.10551
0.10551
0.11723
0.12896
0.1524
0.18758
0.1993
0.1993
0.18758
0.18758
0.1993
0.1993
0.1524
0.12896
0.12896
0.16413
0.1993
0.17585
0.18758
0.18758
0.18758
0.17585
0.17585
0.18758
0.18758
0.18758
0.18758
0.18758
0.17585
0.1524
0.16413
0.16413
0.17585
0.18758
0.18758
0.17585
0.18758
0.1993
0.1993
0.18758
0.17585
0.17585
0.16413
0.17585
0.1993
0.21102
0.23447
0.21102
0.18758
0.1993
0.17585
0.10551
0.070341
0.058618
0.082064
0.12896
0.16413
0.17585
0.17585
0.16413
0.18758
0.22274
0.21102
0.21102
0.1993
0.21102
0.17585
0.16413
0.14068
0.16413
0.16413
0.14068
0.11723
0.12896
0.14068
0.1524
0.1524
0.1524
0.16413
0.14068
0.1524
0.18758
0.17585
0.16413
0.17585
0.18758
0.1993
0.1993
0.17585
0.17585
0.1524
0.11723
0.10551
0.1524
0.26964
0.43377
0.51583
0.46894
0.3986
0.3517
0.31653
0.24619
0.1524
0.093787
0.058618
0.035171
0.011724
0
-0.011724
0.011724
-0.011724
-0.046894
-0.11723
-0.11723
-0.082064
-0.058618
-0.058618
-0.058618
-0.058618
-0.046894
-0.046894
-0.035171
-0.035171
-0.035171
-0.058618
-0.082064
-0.07034
-0.058618
-0.058618
-0.046894
-0.035171
-0.046894
-0.058618
-0.058618
-0.035171
-0.023447
-0.035171
-0.011724
0.011724
0.011724
0.023447
0.023447
0.046894
0.046894
0.035171
0.046894
0.011724
-0.011724
-0.011724
0
0
-0.023447
-0.035171
-0.035171
-0.023447
-0.035171
-0.058618
-0.093787
-0.10551
-0.11723
-0.12896
-0.11723
-0.11723
-0.093787
-0.082064
-0.058618
-0.058618
-0.035171
-0.035171
-0.046894
-0.023447
-0.023447
-0.023447
-0.035171
-0.035171
-0.035171
0
0.023447
0.070341
0.10551
0.12896
0.14068
0.12896
0.11723
0.12896
0.12896
0.14068
0.14068
0.1524
0.16413
0.16413
0.1524
0.14068
0.14068
0.14068
0.12896
0.12896
0.12896
0.12896
0.14068
0.16413
0.14068
0.14068
0.14068
0.14068
0.12896
0.11723
0.12896
0.14068
0.14068
0.14068
0.12896
0.11723
0.10551
0.10551
0.11723
0.11723
0.10551
0.082064
0.058618
0.070341
0.058618
0.070341
0.058618
0.058618
0.046894
0.046894
0.070341
0.070341
0.093787
0.12896
0.16413
0.16413
0.16413
0.16413
0.17585
0.16413
0.16413
0.18758
0.1993
0.1993
0.21102
0.18758
0.1524
0.12896
0.14068
0.12896
0.11723
0.10551
0.093787
0.11723
0.11723
0.11723
0.14068
0.16413
0.16413
0.14068
0.14068
0.14068
0.14068
0.11723
0.12896
0.14068
0.1524
0.14068
0.12896
0.12896
0.1524
0.17585
0.17585
0.16413
0.17585
0.16413
0.12896
0.11723
0.082064
0.093787
0.093787
0.058618
0.023447
0.023447
0.058618
0.070341
0.058618
0.058618
0.093787
0.11723
0.14068
0.14068
0.14068
0.14068
0.14068
0.16413
0.1993
0.21102
0.21102
0.23447
0.26964
0.28136
0.24619
0.18758
0.18758
0.16413
0.058618
0.023447
0.035171
0.046894
0.070341
0.070341
0.058618
0.082064
0.10551
0.14068
0.1524
0.1524
0.12896
0.12896
0.10551
0.093787
0.093787
0.12896
0.14068
0.12896
0.12896
0.10551
0.082064
0.070341
0.082064
0.070341
0.058618
0.070341
0.058618
0.058618
0.058618
0.082064
0.10551
0.082064
0.093787
0.10551
0.12896
0.1524
0.1524
0.12896
0.11723
0.093787
0.14068
0.25792
0.45721
0.52755
0.46894
0.37515
0.29309
0.24619
0.21102
0.1524
0.10551
0.082064
0.046894
0.046894
0.023447
0
0.035171
0.070341
0.082064
0.093787
0.093787
0.10551
0.093787
0.082064
0.070341
0.070341
0.082064
0.093787
0.10551
0.093787
0.082064
0.082064
0.058618
0.070341
0.058618
0.035171
0.046894
0.058618
0.035171
0
0
0.011724
0.035171
0.058618
0.070341
0.070341
0.058618
0.035171
0.023447
0.035171
0.082064
0.10551
0.14068
0.1524
0.1524
0.1524
0.11723
0.082064
0.070341
0.046894
0.046894
0.011724
-0.023447
-0.046894
-0.082064
-0.093787
-0.082064
-0.093787
-0.11723
-0.12896
-0.12896
-0.11723
-0.11723
-0.11723
-0.10551
-0.10551
-0.093787
-0.07034
-0.058618
-0.058618
-0.058618
-0.046894
-0.058618
-0.046894
-0.046894
-0.07034
-0.058618
-0.035171
-0.023447
0
0.023447
0.058618
0.070341
0.070341
0.070341
0.093787
0.12896
0.14068
0.14068
0.11723
0.12896
0.1524
0.17585
0.1524
0.14068
0.11723
0.11723
0.11723
0.14068
0.1524
0.1524
0.16413
0.1524
0.14068
0.12896
0.12896
0.12896
0.14068
0.11723
0.11723
0.12896
0.14068
0.14068
0.14068
0.1524
0.16413
0.1524
0.1524
0.1524
0.1524
0.17585
0.18758
0.21102
0.21102
0.22274
0.23447
0.23447
0.22274
0.22274
0.1993
0.16413
0.18758
0.22274
0.23447
0.22274
0.21102
0.1993
0.1993
0.16413
0.11723
0.10551
0.093787
0.046894
0.023447
0.023447
0.035171
0.035171
0.046894
0.070341
0.10551
0.10551
0.10551
0.10551
0.10551
0.12896
0.12896
0.12896
0.12896
0.14068
0.11723
0.093787
0.070341
0.023447
0.023447
0.046894
0.058618
0.082064
0.082064
0.10551
0.11723
0.11723
0.082064
0.070341
0.046894
0.046894
0.093787
0.11723
0.12896
0.14068
0.14068
0.14068
0.14068
0.14068
0.14068
0.12896
0.10551
0.082064
0.093787
0.093787
0.11723
0.14068
0.16413
0.16413
0.16413
0.18758
0.1993
0.1993
0.18758
0.21102
0.23447
0.26964
0.29309
0.29309
0.28136
0.25792
0.23447
0.21102
0.1524
0.093787
0.058618
0.070341
0.10551
0.14068
0.16413
0.1524
0.14068
0.1524
0.14068
0.14068
0.1524
0.16413
0.17585
0.17585
0.21102
0.18758
0.18758
0.16413
0.14068
0.14068
0.14068
0.12896
0.11723
0.11723
0.10551
0.11723
0.12896
0.1524
0.14068
0.12896
0.14068
0.1524
0.1524
0.1524
0.1524
0.12896
0.10551
0.070341
0.035171
0.011724
0
0.046894
0.1524
0.33998
0.45721
0.41032
0.3517
0.28136
0.23447
0.1993
0.1524
0.10551
0.093787
0.070341
0.058618
0.046894
0.046894
0.035171
0.035171
0.023447
0.023447
0.011724
0.011724
0.011724
0.023447
0.011724
0.023447
0.035171
0.058618
0.070341
0.058618
0.023447
-0.011724
-0.023447
-0.011724
-0.023447
0
0.023447
0.035171
0.046894
0.058618
0.070341
0.058618
0.070341
0.093787
0.093787
0.082064
0.070341
0.058618
0.070341
0.082064
0.10551
0.11723
0.12896
0.14068
0.14068
0.12896
0.11723
0.11723
0.11723
0.14068
0.17585
0.18758
0.1993
0.18758
0.14068
0.11723
0.10551
0.070341
0.070341
0.058618
0.070341
0.070341
0.070341
0.093787
0.093787
0.093787
0.082064
0.070341
0.058618
0.058618
0.046894
0.046894
0.035171
0.046894
0.082064
0.10551
0.11723
0.11723
0.11723
0.12896
0.14068
0.1524
0.1524
0.14068
0.12896
0.12896
0.14068
0.12896
0.093787
0.093787
0.11723
0.093787
0.082064
0.070341
0.058618
0.070341
0.093787
0.070341
0.035171
0.023447
0.035171
0.035171
0.035171
0.070341
0.082064
0.082064
0.082064
0.10551
0.12896
0.14068
0.1524
0.14068
0.11723
0.11723
0.12896
0.14068
0.16413
0.1993
0.21102
0.1993
0.1993
0.1993
0.17585
0.14068
0.11723
0.10551
0.10551
0.082064
0.035171
0
0
0.011724
-0.011724
0
0.023447
0.011724
0.023447
0.058618
0.070341
0.070341
0.058618
0.035171
0.035171
0.035171
0.046894
0.070341
0.082064
0.082064
0.070341
0.070341
0.093787
0.11723
0.11723
0.12896
0.14068
0.16413
0.18758
0.17585
0.1524
0.11723
0.10551
0.093787
0.093787
0.082064
0.082064
0.070341
0.070341
0.070341
0.058618
0.046894
0.046894
0.046894
0.058618
0.070341
0.070341
0.082064
0.082064
0.070341
0.058618
0.070341
0.082064
0.11723
0.14068
0.12896
0.10551
0.082064
0.082064
0.082064
0.093787
0.070341
0.058618
0.082064
0.093787
0.093787
0.082064
0.070341
0.093787
0.093787
0.082064
0.082064
0.11723
0.12896
0.11723
0.10551
0.10551
0.10551
0.11723
0.14068
0.16413
0.16413
0.14068
0.14068
0.1524
0.16413
0.16413
0.1524
0.14068
0.14068
0.14068
0.1524
0.21102
0.23447
0.24619
0.26964
0.24619
0.21102
0.1993
0.1993
0.11723
0.046894
0.035171
0.058618
0.093787
0.11723
0.12896
0.14068
0.12896
0.12896
0.14068
0.1524
0.1524
0.1524
0.16413
0.17585
0.17585
0.16413
0.16413
0.16413
0.16413
0.1524
0.12896
0.11723
0.11723
0.12896
0.14068
0.12896
0.10551
0.093787
0.082064
0.093787
0.082064
0.082064
0.093787
0.10551
0.12896
0.10551
0.10551
0.082064
0.082064
0.070341
0.058618
0.11723
0.30481
0.48066
0.49238
0.42204
0.36343
0.32826
0.29309
0.24619
0.21102
0.1993
0.17585
0.17585
0.16413
0.16413
0.18758
0.21102
0.22274
0.1993
0.18758
0.17585
0.14068
0.11723
0.10551
0.082064
0.046894
0.023447
0.023447
0.011724
-0.011724
-0.035171
-0.058618
-0.058618
-0.046894
-0.058618
-0.07034
-0.093787
-0.07034
-0.082064
-0.082064
-0.058618
-0.035171
-0.023447
0.011724
0.023447
0.011724
0.011724
0
0.035171
0.035171
0.046894
0.070341
0.058618
0.058618
0.046894
0.046894
0.046894
0.046894
0.035171
0.023447
-0.011724
-0.035171
-0.046894
-0.058618
-0.07034
-0.082064
-0.082064
-0.07034
-0.046894
-0.07034
-0.11723
-0.14068
-0.1524
-0.17585
-0.17585
-0.1993
-0.1993
-0.21102
-0.1993
-0.1993
-0.17585
-0.14068
-0.10551
-0.07034
-0.07034
-0.058618
-0.046894
-0.035171
-0.011724
0.023447
0.035171
0.035171
0.035171
0.046894
0.046894
0.023447
0.011724
0.035171
0.070341
0.093787
0.082064
0.082064
0.070341
0.082064
0.11723
0.14068
0.16413
0.17585
0.17585
0.16413
0.16413
0.16413
0.16413
0.14068
0.14068
0.14068
0.14068
0.14068
0.1524
0.14068
0.14068
0.12896
0.1524
0.1524
0.16413
0.17585
0.1524
0.12896
0.11723
0.11723
0.10551
0.082064
0.058618
0.082064
0.093787
0.10551
0.14068
0.12896
0.14068
0.14068
0.1524
0.17585
0.17585
0.1524
0.1524
0.16413
0.14068
0.1524
0.1524
0.14068
0.10551
0.10551
0.10551
0.093787
0.082064
0.070341
0.070341
0.070341
0.082064
0.082064
0.070341
0.046894
0.023447
0.023447
0.023447
0.035171
0.070341
0.070341
0.093787
0.11723
0.11723
0.12896
0.1524
0.16413
0.1524
0.1524
0.16413
0.16413
0.18758
0.18758
0.1993
0.21102
0.21102
0.22274
0.24619
0.23447
0.23447
0.24619
0.26964
0.25792
0.25792
0.23447
0.21102
0.21102
0.21102
0.1993
0.18758
0.18758
0.18758
0.16413
0.1524
0.14068
0.11723
0.11723
0.10551
0.093787
0.058618
0.023447
0
-0.011724
0.011724
0.023447
0.035171
0.035171
0.046894
0.070341
0.058618
0.035171
0
-0.046894
-0.035171
-0.023447
-0.011724
-0.011724
0.011724
0.023447
0.023447
0.035171
0.058618
0.070341
0.070341
0.046894
0.023447
0.011724
0
0.023447
0.046894
0.046894
0.046894
0.058618
0.070341
0.082064
0.093787
0.12896
0.16413
0.17585
0.17585
0.1524
0.14068
0.12896
0.082064
0.046894
0.035171
0.011724
0.058618
0.10551
0.10551
0.093787
0.093787
0.12896
0.1524
0.16413
0.14068
0.12896
0.10551
0.11723
0.12896
0.1524
0.11723
0.11723
0.16413
0.16413
0.18758
0.18758
0.18758
0.21102
0.22274
0.22274
0.18758
0.18758
0.18758
0.16413
0.17585
0.18758
0.18758
0.1993
0.21102
0.22274
0.1993
0.16413
0.17585
0.17585
0.17585
0.21102
0.31653
0.51583
0.56273
0.49238
0.3986
0.31653
0.25792
0.21102
0.17585
0.1524
0.14068
0.12896
0.11723
0.10551
0.093787
0.093787
0.10551
0.10551
0.12896
0.11723
0.10551
0.082064
0.046894
0.035171
0.023447
0.011724
0
0
0
0.011724
0.035171
0.046894
0.035171
0.046894
0.046894
0.046894
0.046894
0.035171
0
0
-0.011724
0.011724
0.011724
-0.011724
-0.035171
-0.023447
-0.035171
-0.035171
-0.023447
-0.011724
0
0.011724
0.046894
0.058618
0.023447
0
-0.035171
-0.082064
-0.093787
-0.082064
-0.07034
-0.07034
-0.07034
-0.07034
-0.07034
-0.046894
-0.046894
-0.035171
-0.035171
-0.046894
-0.046894
-0.035171
-0.023447
-0.046894
-0.046894
-0.011724
0.011724
0.023447
0.011724
0.011724
0.011724
0.023447
0.058618
0.058618
0.082064
0.10551
0.10551
0.10551
0.093787
0.11723
0.12896
0.14068
0.093787
0.093787
0.093787
0.082064
0.093787
0.10551
0.10551
0.12896
0.12896
0.11723
0.12896
0.14068
0.16413
0.16413
0.18758
0.18758
0.18758
0.17585
0.17585
0.1993
0.22274
0.21102
0.23447
0.25792
0.24619
0.25792
0.24619
0.23447
0.23447
0.22274
0.1993
0.18758
0.18758
0.21102
0.1993
0.17585
0.16413
0.16413
0.16413
0.16413
0.1524
0.12896
0.11723
0.14068
0.1524
0.16413
0.1524
0.16413
0.1524
0.12896
0.11723
0.10551
0.082064
0.082064
0.093787
0.11723
0.12896
0.14068
0.12896
0.11723
0.11723
0.093787
0.093787
0.082064
0.082064
0.035171
0.011724
0
0.011724
0
-0.023447
-0.023447
-0.011724
0
0
0.011724
0.023447
0.035171
0.058618
0.046894
0.058618
0.058618
0.070341
0.093787
0.11723
0.12896
0.1524
0.1524
0.14068
0.10551
0.10551
0.10551
0.11723
0.10551
0.12896
0.14068
0.14068
0.1524
0.1524
0.16413
0.16413
0.17585
0.17585
0.17585
0.17585
0.17585
0.18758
0.1524
0.1524
0.14068
0.12896
0.11723
0.11723
0.10551
0.10551
0.11723
0.10551
0.10551
0.14068
0.1524
0.1524
0.1524
0.16413
0.16413
0.16413
0.17585
0.17585
0.18758
0.1993
0.17585
0.16413
0.1524
0.12896
0.10551
0.093787
0.058618
0.046894
0.058618
0.046894
0.011724
-0.023447
-0.035171
-0.011724
0.023447
0.093787
0.1524
0.1993
0.23447
0.23447
0.1993
0.17585
0.1524
0.058618
-0.035171
-0.058618
-0.035171
0.011724
0.046894
0.070341
0.058618
0.046894
0.082064
0.12896
0.14068
0.12896
0.14068
0.1524
0.17585
0.18758
0.18758
0.1524
0.14068
0.12896
0.1524
0.14068
0.14068
0.12896
0.11723
0.093787
0.10551
0.11723
0.10551
0.093787
0.10551
0.12896
0.12896
0.12896
0.093787
0.082064
0.082064
0.093787
0.093787
0.082064
0.070341
0.058618
0.046894
0.093787
0.25792
0.46894
0.52755
0.46894
0.38687
0.32826
0.26964
0.24619
0.1993
0.18758
0.16413
0.1524
0.14068
0.11723
0.11723
0.12896
0.12896
0.12896
0.12896
0.12896
0.11723
0.10551
0.082064
0.070341
0.046894
0.035171
0.023447
0.046894
0.070341
0.070341
0.058618
0.035171
0.035171
0.023447
0.046894
0.058618
0.046894
0.046894
0.035171
0.023447
0.023447
0.011724
0.011724
0
0.011724
0.011724
0.023447
0.046894
0.058618
0.070341
0.070341
0.093787
0.10551
0.10551
0.10551
0.093787
0.082064
0.082064
0.070341
0.070341
0.058618
0.046894
0.035171
0.046894
0.023447
0.011724
-0.023447
-0.035171
-0.035171
-0.023447
-0.011724
0
0.011724
0.011724
0
0.023447
0.023447
0.058618
0.070341
0.082064
0.093787
0.11723
0.12896
0.1524
0.16413
0.17585
0.17585
0.18758
0.1993
0.1993
0.1993
0.18758
0.16413
0.18758
0.17585
0.16413
0.16413
0.1524
0.14068
0.11723
0.10551
0.070341
0.046894
0.023447
-0.023447
-0.058618
-0.058618
-0.058618
-0.035171
-0.035171
-0.023447
-0.011724
0
0.023447
0.023447
0.023447
0.035171
0.023447
0.011724
0.023447
0.035171
0.058618
0.093787
0.10551
0.10551
0.10551
0.10551
0.11723
0.12896
0.12896
0.11723
0.10551
0.11723
0.12896
0.11723
0.093787
0.082064
0.070341
0.070341
0.058618
0.058618
0.070341
0.093787
0.093787
0.093787
0.093787
0.10551
0.12896
0.14068
0.14068
0.1524
0.1524
0.16413
0.16413
0.1524
0.14068
0.12896
0.10551
0.093787
0.10551
0.11723
0.12896
0.12896
0.1524
0.16413
0.17585
0.17585
0.1993
0.21102
0.22274
0.22274
0.21102
0.23447
0.21102
0.17585
0.1524
0.16413
0.16413
0.1524
0.17585
0.17585
0.1524
0.12896
0.10551
0.093787
0.070341
0.058618
0.070341
0.058618
0.070341
0.058618
0.046894
0.035171
0.023447
0.035171
0.046894
0.070341
0.082064
0.093787
0.093787
0.10551
0.093787
0.082064
0.070341
0.070341
0.070341
0.082064
0.093787
0.10551
0.11723
0.11723
0.12896
0.12896
0.11723
0.11723
0.12896
0.12896
0.11723
0.12896
0.14068
0.17585
0.16413
0.18758
0.1993
0.18758
0.18758
0.18758
0.18758
0.1993
0.18758
0.17585
0.16413
0.17585
0.17585
0.16413
0.14068
0.14068
0.14068
0.1524
0.16413
0.18758
0.21102
0.22274
0.24619
0.24619
0.21102
0.18758
0.14068
0.058618
0
0
0.011724
0.070341
0.10551
0.11723
0.11723
0.10551
0.12896
0.12896
0.11723
0.14068
0.14068
0.14068
0.1524
0.1524
0.1524
0.1524
0.14068
0.1524
0.16413
0.16413
0.18758
0.21102
0.1993
0.17585
0.16413
0.1524
0.14068
0.14068
0.1524
0.12896
0.12896
0.12896
0.1524
0.1524
0.16413
0.14068
0.11723
0.093787
0.082064
0.082064
0.082064
0.1524
0.29309
0.49238
0.56273
0.51583
0.43377
0.36343
0.3517
0.31653
0.24619
0.17585
0.10551
0.070341
0.046894
0.058618
0.082064
0.093787
0.10551
0.12896
0.12896
0.14068
0.14068
0.10551
0.082064
0.058618
0.082064
0.093787
0.082064
0.082064
0.070341
0.046894
0.035171
0.023447
0.023447
0.011724
0.011724
0.023447
0.035171
0.058618
0.070341
0.093787
0.11723
0.1524
0.17585
0.17585
0.16413
0.1524
0.12896
0.11723
0.093787
0.082064
0.070341
0.046894
0.023447
0.011724
0
-0.011724
0
-0.046894
-0.093787
-0.12896
-0.14068
-0.14068
-0.12896
-0.12896
-0.1524
-0.16413
-0.16413
-0.14068
-0.11723
-0.10551
-0.11723
-0.12896
-0.11723
-0.10551
-0.082064
-0.046894
-0.023447
-0.035171
-0.035171
-0.046894
-0.035171
-0.011724
0.023447
0.035171
0.058618
0.070341
0.093787
0.10551
0.10551
0.11723
0.14068
0.1524
0.18758
0.1993
0.1993
0.1993
0.21102
0.1993
0.18758
0.18758
0.1993
0.21102
0.22274
0.24619
0.24619
0.23447
0.22274
0.18758
0.14068
0.12896
0.10551
0.10551
0.082064
0.082064
0.070341
0.082064
0.082064
0.058618
0.070341
0.082064
0.10551
0.11723
0.11723
0.10551
0.10551
0.11723
0.10551
0.070341
0.046894
0.046894
0.046894
0.058618
0.070341
0.082064
0.082064
0.093787
0.093787
0.10551
0.10551
0.10551
0.11723
0.093787
0.082064
0.10551
0.11723
0.10551
0.11723
0.11723
0.10551
0.11723
0.12896
0.14068
0.12896
0.12896
0.14068
0.16413
0.18758
0.21102
0.21102
0.21102
0.1993
0.1993
0.18758
0.17585
0.17585
0.17585
0.18758
0.17585
0.16413
0.16413
0.17585
0.1524
0.1524
0.1524
0.14068
0.093787
0.082064
0.070341
0.070341
0.082064
0.082064
0.082064
0.093787
0.11723
0.14068
0.16413
0.17585
0.18758
0.1993
0.18758
0.18758
0.18758
0.17585
0.16413
0.14068
0.1524
0.1524
0.16413
0.18758
0.16413
0.1524
0.12896
0.10551
0.093787
0.10551
0.10551
0.11723
0.12896
0.1524
0.17585
0.18758
0.18758
0.1993
0.18758
0.16413
0.12896
0.12896
0.14068
0.12896
0.11723
0.12896
0.14068
0.1524
0.1524
0.12896
0.10551
0.093787
0.093787
0.070341
0.058618
0.070341
0.070341
0.058618
0.058618
0.093787
0.11723
0.12896
0.1524
0.17585
0.1524
0.10551
0.10551
0.11723
0.093787
0.011724
-0.023447
-0.011724
0.035171
0.070341
0.11723
0.12896
0.12896
0.14068
0.16413
0.1524
0.16413
0.16413
0.16413
0.16413
0.1524
0.16413
0.17585
0.16413
0.1524
0.1524
0.14068
0.12896
0.10551
0.082064
0.082064
0.070341
0.070341
0.058618
0.070341
0.082064
0.093787
0.082064
0.093787
0.10551
0.10551
0.10551
0.070341
0.070341
0.058618
0.070341
0.046894
0.046894
0.046894
0.093787
0.23447
0.46894
0.56273
0.50411
0.38687
0.30481
0.26964
0.23447
0.17585
0.1524
0.14068
0.11723
0.11723
0.11723
0.12896
0.14068
0.14068
0.1524
0.16413
0.16413
0.17585
0.16413
0.17585
0.17585
0.16413
0.1524
0.14068
0.14068
0.12896
0.1524
0.16413
0.17585
0.17585
0.17585
0.18758
0.18758
0.17585
0.1524
0.1524
0.1524
0.1524
0.1524
0.14068
0.12896
0.11723
0.10551
0.093787
0.093787
0.082064
0.046894
0
-0.046894
-0.07034
-0.058618
-0.07034
-0.082064
-0.082064
-0.07034
-0.082064
-0.082064
-0.082064
-0.093787
-0.11723
-0.14068
-0.1524
-0.16413
-0.17585
-0.17585
-0.1524
-0.16413
-0.17585
-0.18758
-0.1993
-0.22274
-0.1993
-0.1993
-0.18758
-0.18758
-0.18758
-0.18758
-0.18758
-0.14068
-0.10551
-0.07034
-0.058618
-0.058618
-0.046894
-0.046894
-0.058618
-0.046894
-0.011724
0.011724
0.011724
0.035171
0.046894
0.058618
0.058618
0.046894
0.046894
0.046894
0.058618
0.082064
0.093787
0.14068
0.17585
0.18758
0.1993
0.21102
0.21102
0.21102
0.1993
0.1993
0.18758
0.18758
0.17585
0.16413
0.16413
0.18758
0.1993
0.21102
0.18758
0.18758
0.1993
0.1993
0.22274
0.23447
0.22274
0.22274
0.21102
0.1993
0.18758
0.17585
0.17585
0.17585
0.1993
0.1993
0.18758
0.17585
0.17585
0.18758
0.1993
0.21102
0.21102
0.18758
0.17585
0.16413
0.17585
0.17585
0.17585
0.16413
0.1524
0.14068
0.14068
0.12896
0.11723
0.12896
0.1524
0.17585
0.18758
0.18758
0.17585
0.16413
0.1524
0.14068
0.14068
0.11723
0.11723
0.093787
0.070341
0.070341
0.070341
0.070341
0.070341
0.082064
0.070341
0.070341
0.082064
0.093787
0.093787
0.11723
0.12896
0.12896
0.12896
0.12896
0.12896
0.14068
0.12896
0.14068
0.14068
0.093787
0.058618
0.035171
0.023447
0.023447
0.046894
0.035171
0.011724
0
-0.011724
-0.046894
-0.058618
-0.082064
-0.093787
-0.058618
-0.023447
0.011724
0.035171
0.023447
0.023447
0.023447
0.035171
0.035171
0.070341
0.070341
0.070341
0.058618
0.070341
0.070341
0.058618
0.046894
0.023447
0
-0.011724
0.011724
0.023447
0.046894
0.082064
0.10551
0.11723
0.14068
0.14068
0.14068
0.1524
0.1524
0.12896
0.12896
0.12896
0.14068
0.16413
0.17585
0.1993
0.23447
0.25792
0.22274
0.1993
0.1993
0.14068
0.070341
0.070341
0.082064
0.10551
0.11723
0.11723
0.093787
0.070341
0.058618
0.046894
0.035171
0.058618
0.058618
0.082064
0.093787
0.093787
0.082064
0.046894
0.023447
0.023447
0.035171
0.023447
0.011724
0.023447
0.023447
0.035171
0.035171
0.058618
0.082064
0.093787
0.093787
0.093787
0.10551
0.11723
0.10551
0.082064
0.082064
0.070341
0.058618
0.035171
0.011724
0
-0.011724
0
0.058618
0.1993
0.3986
0.44549
0.37515
0.26964
0.1993
0.17585
0.14068
0.093787
0.058618
0.011724
-0.023447
-0.046894
-0.058618
-0.058618
-0.058618
-0.023447
0
0.011724
0.035171
0.046894
0.046894
0.082064
0.11723
0.11723
0.11723
0.12896
0.12896
0.093787
0.070341
0.058618
0.058618
0.070341
0.082064
0.10551
0.11723
0.10551
0.070341
0.070341
0.070341
0.058618
0.046894
0.035171
0.023447
0.023447
0.035171
0.070341
0.070341
0.093787
0.082064
0.070341
0.023447
-0.011724
-0.011724
-0.023447
-0.035171
-0.046894
-0.082064
-0.10551
-0.12896
-0.14068
-0.12896
-0.10551
-0.082064
-0.07034
-0.058618
-0.07034
-0.093787
-0.093787
-0.082064
-0.082064
-0.093787
-0.10551
-0.11723
-0.10551
-0.10551
-0.10551
-0.093787
-0.082064
-0.07034
-0.07034
-0.058618
-0.035171
-0.035171
-0.035171
-0.035171
-0.011724
0.023447
0.058618
0.082064
0.093787
0.10551
0.12896
0.14068
0.16413
0.17585
0.17585
0.18758
0.1993
0.21102
0.23447
0.24619
0.22274
0.22274
0.23447
0.25792
0.28136
0.26964
0.24619
0.1993
0.1993
0.18758
0.18758
0.1993
0.1993
0.18758
0.17585
0.18758
0.16413
0.14068
0.12896
0.14068
0.12896
0.10551
0.093787
0.10551
0.11723
0.11723
0.082064
0.093787
0.11723
0.11723
0.1524
0.16413
0.1524
0.12896
0.14068
0.16413
0.16413
0.17585
0.18758
0.1993
0.21102
0.1993
0.21102
0.22274
0.21102
0.17585
0.14068
0.12896
0.1524
0.16413
0.16413
0.17585
0.1993
0.18758
0.16413
0.12896
0.10551
0.082064
0.082064
0.093787
0.093787
0.10551
0.10551
0.093787
0.093787
0.093787
0.082064
0.093787
0.10551
0.10551
0.093787
0.082064
0.082064
0.10551
0.10551
0.10551
0.093787
0.093787
0.10551
0.11723
0.12896
0.12896
0.12896
0.11723
0.093787
0.070341
0.093787
0.070341
0.070341
0.093787
0.093787
0.11723
0.12896
0.12896
0.1524
0.1524
0.16413
0.1524
0.14068
0.11723
0.12896
0.1524
0.16413
0.18758
0.1993
0.1993
0.21102
0.22274
0.21102
0.1993
0.22274
0.23447
0.23447
0.22274
0.1993
0.17585
0.17585
0.18758
0.1993
0.1993
0.1993
0.21102
0.22274
0.22274
0.1993
0.18758
0.1993
0.21102
0.21102
0.1993
0.21102
0.1993
0.18758
0.14068
0.14068
0.14068
0.1524
0.18758
0.23447
0.24619
0.23447
0.22274
0.18758
0.14068
0.058618
-0.035171
-0.07034
-0.058618
-0.035171
-0.011724
0
-0.011724
0
0.023447
0.035171
0.011724
0
0.011724
0.023447
0
0.011724
0.035171
0.046894
0.058618
0.070341
0.070341
0.070341
0.058618
0.035171
0.023447
0.046894
0.070341
0.070341
0.058618
0.070341
0.093787
0.11723
0.14068
0.1524
0.1524
0.14068
0.12896
0.10551
0.093787
0.082064
0.082064
0.082064
0.082064
0.082064
0.12896
0.24619
0.45721
0.53928
0.50411
0.43377
0.33998
0.31653
0.28136
0.22274
0.1524
0.11723
0.082064
0.082064
0.082064
0.093787
0.10551
0.093787
0.082064
0.070341
0.082064
0.082064
0.093787
0.10551
0.10551
0.12896
0.1524
0.17585
0.17585
0.18758
0.17585
0.18758
0.18758
0.18758
0.18758
0.1993
0.21102
0.22274
0.24619
0.21102
0.18758
0.17585
0.1524
0.12896
0.10551
0.10551
0.10551
0.11723
0.10551
0.082064
0.070341
0.058618
0.035171
0.046894
0.058618
0.058618
0.058618
0.058618
0.035171
-0.023447
-0.058618
-0.058618
-0.082064
-0.093787
-0.11723
-0.12896
-0.16413
-0.18758
-0.1993
-0.21102
-0.22274
-0.23447
-0.22274
-0.23447
-0.22274
-0.21102
-0.1993
-0.1993
-0.21102
-0.1993
-0.17585
-0.14068
-0.10551
-0.082064
-0.058618
-0.035171
-0.023447
0
0.035171
0.058618
0.070341
0.10551
0.10551
0.11723
0.14068
0.1524
0.1524
0.14068
0.1524
0.1524
0.14068
0.10551
0.070341
0.046894
0.011724
0.023447
0
0.011724
0.023447
0.011724
0.011724
0.011724
0.023447
0.023447
0.011724
0
0
0
0
0
0
0.011724
0.023447
0.046894
0.058618
0.046894
0.046894
0.046894
0.058618
0.070341
0.082064
0.082064
0.093787
0.093787
0.093787
0.10551
0.10551
0.11723
0.14068
0.14068
0.12896
0.10551
0.070341
0.058618
0.046894
0.058618
0.070341
0.070341
0.058618
0.058618
0.070341
0.070341
0.058618
0.058618
0.046894
0.046894
0.035171
0.011724
0
0
0.011724
0.035171
0.082064
0.058618
0.035171
0.035171
0.011724
-0.011724
-0.011724
-0.011724
0.011724
0.035171
0.046894
0.046894
0.070341
0.070341
0.082064
0.082064
0.082064
0.082064
0.10551
0.12896
0.14068
0.12896
0.12896
0.14068
0.12896
0.14068
0.1524
0.12896
0.11723
0.11723
0.12896
0.12896
0.11723
0.11723
0.11723
0.11723
0.11723
0.14068
0.14068
0.14068
0.1524
0.14068
0.16413
0.16413
0.1524
0.1524
0.14068
0.12896
0.14068
0.12896
0.1524
0.16413
0.16413
0.18758
0.1993
0.18758
0.17585
0.16413
0.14068
0.10551
0.093787
0.10551
0.14068
0.16413
0.17585
0.16413
0.17585
0.18758
0.17585
0.17585
0.17585
0.17585
0.17585
0.16413
0.14068
0.11723
0.11723
0.10551
0.070341
0.058618
0.070341
0.070341
0.082064
0.058618
0.046894
0.070341
0.10551
0.14068
0.16413
0.14068
0.14068
0.1524
0.11723
0.023447
-0.035171
-0.046894
-0.023447
0.011724
0.023447
0.035171
0.046894
0.046894
0.035171
0.046894
0.046894
0.046894
0.023447
0.011724
0
0.011724
0.011724
0.011724
0.011724
0
0
0
-0.023447
-0.023447
-0.023447
-0.035171
-0.023447
-0.011724
-0.023447
-0.023447
-0.023447
0.011724
0
-0.011724
-0.023447
-0.011724
0.011724
0.023447
0.046894
0.046894
0.046894
0.058618
0.082064
0.1524
0.30481
0.44549
0.42204
0.31653
0.22274
0.14068
0.11723
0.082064
0.046894
0.023447
0.011724
0
-0.023447
-0.035171
-0.023447
-0.011724
0.011724
0.023447
0
0
0.011724
0
-0.046894
-0.058618
-0.058618
-0.035171
-0.011724
0
0.023447
0.035171
0.058618
0.070341
0.070341
0.058618
0.058618
0.035171
0.046894
0.046894
0.023447
-0.011724
-0.035171
-0.046894
-0.023447
-0.023447
-0.023447
-0.011724
-0.023447
-0.011724
-0.011724
-0.011724
-0.023447
-0.011724
-0.011724
-0.023447
-0.011724
-0.011724
-0.011724
0.011724
0.011724
0
0.011724
0
0
-0.023447
-0.035171
-0.058618
-0.093787
-0.10551
-0.10551
-0.10551
-0.082064
-0.07034
-0.07034
-0.082064
-0.07034
-0.058618
-0.046894
-0.011724
0.023447
0.023447
0.023447
0.035171
0.058618
0.058618
0.058618
0.082064
0.10551
0.12896
0.11723
0.082064
0.082064
0.070341
0.070341
0.058618
0.058618
0.058618
0.070341
0.082064
0.093787
0.12896
0.10551
0.10551
0.10551
0.10551
0.093787
0.12896
0.10551
0.082064
0.082064
0.093787
0.082064
0.070341
0.070341
0.070341
0.070341
0.082064
0.093787
0.093787
0.093787
0.12896
0.1524
0.17585
0.17585
0.1524
0.16413
0.17585
0.16413
0.18758
0.17585
0.18758
0.18758
0.18758
0.17585
0.14068
0.12896
0.11723
0.10551
0.082064
0.070341
0.082064
0.070341
0.046894
0.035171
0.023447
0.035171
0.035171
0.046894
0.058618
0.082064
0.082064
0.093787
0.10551
0.082064
0.082064
0.10551
0.12896
0.12896
0.093787
0.058618
0.058618
0.058618
0.070341
0.070341
0.082064
0.082064
0.082064
0.093787
0.11723
0.12896
0.12896
0.12896
0.10551
0.093787
0.082064
0.10551
0.11723
0.12896
0.11723
0.10551
0.093787
0.082064
0.070341
0.082064
0.058618
0.046894
0.046894
0.058618
0.070341
0.058618
0.070341
0.058618
0.046894
0.023447
0.035171
0.023447
0.035171
0.058618
0.070341
0.082064
0.10551
0.12896
0.11723
0.12896
0.11723
0.11723
0.12896
0.16413
0.18758
0.1993
0.1993
0.1993
0.1993
0.17585
0.17585
0.16413
0.1993
0.1993
0.21102
0.22274
0.22274
0.21102
0.18758
0.18758
0.17585
0.16413
0.16413
0.1524
0.093787
0.058618
0.058618
0.035171
0
-0.011724
-0.035171
-0.046894
-0.035171
-0.035171
-0.046894
-0.058618
-0.046894
-0.058618
-0.046894
-0.046894
-0.046894
-0.011724
-0.011724
-0.046894
-0.046894
-0.046894
-0.093787
-0.17585
-0.1993
-0.17585
-0.14068
-0.11723
-0.093787
-0.093787
-0.093787
-0.082064
-0.07034
-0.058618
-0.046894
-0.023447
-0.011724
-0.011724
-0.011724
-0.023447
-0.023447
0
0.046894
0.070341
0.058618
0.058618
0.082064
0.10551
0.11723
0.11723
0.11723
0.11723
0.12896
0.1524
0.16413
0.17585
0.18758
0.17585
0.16413
0.1524
0.14068
0.12896
0.12896
0.12896
0.14068
0.12896
0.12896
0.1993
0.37515
0.50411
0.48066
0.41032
0.3517
0.30481
0.25792
0.21102
0.1524
0.11723
0.11723
0.070341
0.035171
0.035171
0.046894
0.035171
0
0
-0.035171
-0.07034
-0.093787
-0.07034
-0.023447
0.035171
0.058618
0.058618
0.093787
0.093787
0.058618
0.035171
0.023447
0
-0.035171
-0.011724
-0.011724
0.023447
0.046894
0.023447
0.035171
0.046894
0.046894
0.035171
0.023447
0.035171
0.035171
0.058618
0.035171
0
-0.023447
-0.035171
-0.046894
-0.046894
-0.046894
-0.046894
-0.046894
-0.07034
-0.082064
-0.082064
-0.10551
-0.10551
-0.11723
-0.12896
-0.14068
-0.1524
-0.14068
-0.14068
-0.12896
-0.12896
-0.12896
-0.12896
-0.10551
-0.093787
-0.07034
-0.035171
-0.035171
-0.035171
-0.011724
-0.023447
-0.058618
-0.046894
-0.023447
0.023447
0.046894
0.035171
0.035171
0.058618
0.070341
0.058618
0.046894
0.035171
0.035171
0.058618
0.082064
0.093787
0.10551
0.12896
0.1524
0.18758
0.18758
0.17585
0.1524
0.1524
0.14068
0.12896
0.12896
0.12896
0.11723
0.11723
0.11723
0.11723
0.12896
0.11723
0.10551
0.10551
0.10551
0.082064
0.070341
0.070341
0.070341
0.046894
0.035171
0.011724
0
0.011724
0.046894
0.058618
0.058618
0.011724
-0.058618
-0.082064
-0.07034
-0.07034
-0.07034
-0.058618
-0.035171
-0.011724
0
-0.011724
-0.023447
-0.046894
-0.058618
-0.07034
-0.058618
-0.07034
-0.07034
-0.046894
-0.023447
-0.011724
0.011724
0.023447
0.023447
0.035171
0.058618
0.058618
0.058618
0.058618
0.058618
0.046894
0.035171
0.035171
0.070341
0.082064
0.082064
0.093787
0.10551
0.093787
0.093787
0.082064
0.058618
0.046894
0.046894
0.070341
0.058618
0.070341
0.093787
0.082064
0.058618
0.046894
0.070341
0.082064
0.070341
0.046894
0.035171
0.023447
0.023447
0.046894
0.058618
0.070341
0.10551
0.14068
0.16413
0.1524
0.12896
0.11723
0.082064
0.035171
0.011724
0.035171
0.046894
0.058618
0.058618
0.082064
0.093787
0.14068
0.16413
0.17585
0.16413
0.14068
0.12896
0.12896
0.11723
0.12896
0.14068
0.12896
0.093787
0.093787
0.082064
0.070341
0.082064
0.070341
0.070341
0.058618
0.058618
0.082064
0.093787
0.093787
0.10551
0.10551
0.11723
0.093787
0.093787
0.10551
0.082064
0.082064
0.070341
0.046894
0.035171
0.035171
0.011724
0.035171
0.058618
0.082064
0.10551
0.093787
0.082064
0.093787
0.093787
0.023447
-0.011724
-0.011724
0
0
-0.023447
-0.07034
-0.11723
-0.1524
-0.11723
-0.10551
-0.093787
-0.07034
-0.035171
-0.011724
-0.023447
-0.011724
0.023447
0.058618
0.10551
0.10551
0.11723
0.12896
0.11723
0.10551
0.12896
0.14068
0.11723
0.10551
0.082064
0.093787
0.12896
0.14068
0.12896
0.12896
0.10551
0.093787
0.082064
0.058618
0.058618
0.070341
0.023447
0.011724
0.023447
0.093787
0.1993
0.38687
0.49238
0.45721
0.37515
0.30481
0.26964
0.22274
0.17585
0.1524
0.082064
0.046894
0.023447
0.023447
0.023447
-0.011724
-0.011724
0.011724
0.023447
0.035171
0.011724
-0.011724
-0.035171
-0.07034
-0.082064
-0.082064
-0.082064
-0.046894
-0.035171
-0.023447
-0.035171
-0.058618
-0.046894
-0.058618
-0.046894
-0.023447
0.011724
0.023447
0.046894
0.046894
0.058618
0.070341
0.058618
0.070341
0.070341
0.046894
0.035171
0.058618
0.058618
0.082064
0.070341
0.023447
0
-0.011724
-0.023447
-0.035171
-0.046894
-0.046894
-0.046894
-0.046894
-0.07034
-0.058618
-0.082064
-0.07034
-0.058618
-0.07034
-0.12896
-0.16413
-0.1524
-0.1524
-0.1524
-0.1524
-0.14068
-0.10551
-0.093787
-0.082064
-0.082064
-0.082064
-0.07034
-0.035171
-0.011724
0.011724
0.011724
0.011724
0
0.011724
0.023447
0.023447
0.023447
0.058618
0.093787
0.10551
0.10551
0.082064
0.093787
0.10551
0.10551
0.11723
0.12896
0.14068
0.14068
0.1524
0.1524
0.12896
0.14068
0.1524
0.16413
0.18758
0.17585
0.16413
0.1524
0.11723
0.093787
0.10551
0.10551
0.082064
0.082064
0.070341
0.023447
0
0
0
0
-0.011724
-0.011724
0
-0.011724
-0.011724
-0.023447
-0.011724
0.011724
0.023447
0.046894
0.058618
0.058618
0.070341
0.082064
0.058618
0.046894
0.023447
-0.011724
-0.023447
-0.023447
-0.046894
-0.07034
-0.093787
-0.093787
-0.058618
-0.023447
-0.011724
0
0.035171
0.070341
0.093787
0.10551
0.082064
0.058618
0.070341
0.10551
0.11723
0.082064
0.082064
0.082064
0.10551
0.11723
0.10551
0.082064
0.058618
0.023447
-0.011724
-0.023447
-0.011724
0
0.011724
-0.023447
-0.023447
-0.046894
-0.093787
-0.10551
-0.093787
-0.10551
-0.11723
-0.093787
-0.058618
-0.046894
-0.035171
-0.011724
-0.011724
-0.023447
-0.023447
-0.011724
0.023447
0.035171
0.058618
0.093787
0.11723
0.12896
0.12896
0.093787
0.11723
0.14068
0.1524
0.14068
0.11723
0.10551
0.10551
0.082064
0.058618
0.023447
0.011724
0.035171
0.035171
0.058618
0.046894
0.023447
0.011724
0.011724
0.011724
-0.011724
0
0.011724
0.011724
0.023447
0.046894
0.058618
0.070341
0.093787
0.10551
0.11723
0.10551
0.093787
0.082064
0.070341
0.070341
0.070341
0.070341
0.058618
0.070341
0.070341
0.058618
0.058618
0.046894
0.058618
0.070341
0.082064
0.058618
0.070341
0.070341
0.093787
0.12896
0.17585
0.22274
0.24619
0.1993
0.18758
0.17585
0.11723
0.046894
0
0
0.035171
0.082064
0.082064
0.082064
0.070341
0.046894
0.046894
0.070341
0.093787
0.070341
0.058618
0.046894
0.058618
0.035171
0.011724
0
0.023447
0.023447
0.011724
0
0.035171
0.082064
0.070341
0.058618
0.046894
0.023447
0.035171
0.035171
0.035171
0.035171
0
0.023447
0.035171
0.046894
0.046894
0.058618
0.023447
0.023447
0
-0.023447
-0.011724
0.046894
0.18758
0.41032
0.48066
0.44549
0.37515
0.29309
0.24619
0.1993
0.11723
0.082064
0.035171
0.011724
-0.011724
0
0.011724
0.011724
0
0.011724
-0.011724
-0.011724
0
0.011724
0.058618
0.058618
0.035171
0.011724
0.023447
0.058618
0.070341
0.058618
0.058618
0.082064
0.082064
0.093787
0.11723
0.1524
0.1993
0.21102
0.23447
0.22274
0.1993
0.17585
0.1524
0.1524
0.14068
0.10551
0.023447
-0.011724
-0.058618
-0.035171
-0.046894
0.023447
0.035171
0.035171
0.023447
0.046894
0.023447
0.023447
0.011724
-0.023447
-0.035171
-0.011724
0
0.011724
0.035171
0.035171
0
0.046894
0.046894
0.011724
0.011724
0
0
-0.035171
-0.058618
-0.046894
-0.058618
-0.082064
-0.093787
-0.07034
-0.035171
0
0.023447
0.023447
-0.011724
0
0.011724
0.011724
0.011724
0.023447
0.035171
0.035171
0.058618
0.058618
0.082064
0.082064
0.10551
0.14068
0.17585
0.1524
0.093787
0.023447
-0.046894
-0.11723
-0.1524
-0.21102
-0.25792
-0.30481
-0.36343
-0.3517
-0.30481
-0.28136
-0.29309
-0.29309
-0.33998
-0.3986
-0.38687
-0.41032
-0.45721
-0.48066
-0.44549
-0.42204
-0.37515
-0.33998
-0.26964
-0.18758
-0.17585
-0.16413
-0.16413
-0.1524
-0.11723
-0.10551
-0.093787
-0.07034
-0.046894
-0.046894
0
0.058618
0.093787
0.14068
0.16413
0.17585
0.16413
0.16413
0.1524
0.16413
0.1524
0.1524
0.14068
0.093787
0.070341
0.058618
0.070341
0.058618
0.070341
0.093787
0.093787
0.11723
0.14068
0.16413
0.17585
0.17585
0.12896
0.093787
0.10551
0.10551
0.11723
0.10551
0.10551
0.11723
0.11723
0.12896
0.14068
0.14068
0.1524
0.16413
0.14068
0.12896
0.10551
0.10551
0.11723
0.14068
0.14068
0.14068
0.10551
0.058618
0.035171
0.011724
0.011724
0.035171
0.046894
0.070341
0.070341
0.082064
0.082064
0.082064
0.082064
0.023447
0.011724
-0.011724
-0.023447
-0.023447
0.011724
0.023447
0
-0.011724
0
-0.011724
-0.011724
0.023447
0.046894
0.058618
0.082064
0.058618
0.023447
0
-0.011724
-0.023447
-0.011724
0.023447
0.035171
0.035171
0.058618
0.046894
0
-0.011724
0.011724
0.035171
0.082064
0.12896
0.16413
0.18758
0.18758
0.18758
0.18758
0.1524
0.16413
0.16413
0.17585
0.17585
0.18758
0.17585
0.1524
0.14068
0.14068
0.14068
0.12896
0.10551
0.093787
0.082064
0.093787
0.10551
0.1524
0.18758
0.1993
0.18758
0.16413
0.14068
0.070341
-0.011724
-0.046894
-0.035171
-0.035171
-0.011724
0.011724
0.023447
0.011724
0.035171
0.046894
0.035171
0.011724
0.011724
0.011724
0
0
0
0.023447
0.046894
0.035171
0.035171
0.046894
0.058618
0.070341
0.070341
0.093787
0.10551
0.10551
0.093787
0.10551
0.11723
0.11723
0.14068
0.16413
0.1524
0.16413
0.14068
0.14068
0.14068
0.11723
0.093787
0.082064
0.082064
0.058618
0.058618
0.11723
0.22274
0.41032
0.53928
0.52755
0.45721
0.3986
0.3517
0.30481
0.25792
0.1993
0.16413
0.1524
0.1524
0.1524
0.1524
0.1524
0.1524
0.14068
0.11723
0.082064
0.082064
0.082064
0.070341
0.070341
0.058618
0.082064
0.10551
0.11723
0.12896
0.12896
0.14068
0.12896
0.11723
0.12896
0.11723
0.070341
0.046894
0.035171
-0.011724
-0.023447
-0.023447
-0.046894
-0.082064
-0.093787
-0.10551
-0.12896
-0.12896
-0.14068
-0.14068
-0.11723
-0.10551
-0.093787
-0.082064
-0.082064
-0.082064
-0.082064
-0.082064
-0.07034
-0.07034
-0.07034
-0.082064
-0.10551
-0.11723
-0.11723
-0.14068
-0.1524
-0.14068
-0.14068
-0.14068
-0.14068
-0.14068
-0.14068
-0.16413
-0.14068
-0.12896
-0.12896
-0.12896
-0.11723
-0.093787
-0.07034
-0.058618
-0.046894
-0.011724
0.023447
0.046894
0.046894
0.058618
0.070341
0.058618
0.082064
0.093787
0.10551
0.093787
0.082064
0.093787
0.11723
0.12896
0.1524
0.1524
0.16413
0.16413
0.1524
0.12896
0.082064
0.070341
0.070341
0.058618
0.070341
0.093787
0.093787
0.082064
0.070341
0.046894
0
0
-0.011724
-0.011724
0.011724
0.011724
0.011724
0
0
0.011724
0.023447
0.023447
0.035171
0.046894
0.046894
0.035171
0.035171
0.058618
0.070341
0.10551
0.11723
0.11723
0.10551
0.10551
0.093787
0.082064
0.070341
0.058618
0.058618
0.070341
0.058618
0.046894
0.035171
0.046894
0.058618
0.058618
0.058618
0.058618
0.058618
0.082064
0.070341
0.035171
-0.011724
-0.058618
-0.07034
-0.082064
-0.07034
-0.07034
-0.07034
-0.058618
-0.046894
-0.023447
0
0
0.023447
0.058618
0.093787
0.10551
0.10551
0.093787
0.070341
0.082064
0.093787
0.11723
0.12896
0.16413
0.16413
0.14068
0.14068
0.14068
0.14068
0.14068
0.12896
0.11723
0.11723
0.11723
0.12896
0.11723
0.10551
0.093787
0.046894
0.011724
0.011724
0.011724
0
-0.011724
0
0
0.011724
0.011724
0
-0.011724
-0.011724
-0.023447
0
0.011724
0
0
0.023447
0.035171
0.058618
0.046894
0.046894
0.046894
0.046894
0.046894
0.070341
0.070341
0.070341
0.046894
0.046894
0.058618
0.058618
0.058618
0.070341
0.093787
0.093787
0.093787
0.093787
0.10551
0.12896
0.10551
0.11723
0.10551
0.11723
0.10551
0.10551
0.11723
0.11723
0.093787
0.10551
0.11723
0.093787
0.046894
0.035171
0.035171
0.023447
0
-0.011724
-0.035171
-0.035171
-0.035171
-0.023447
0
0.023447
0.046894
0.070341
0.070341
0.058618
0.035171
-0.011724
-0.07034
-0.082064
-0.07034
-0.035171
0.011724
0.011724
0
0
0.011724
0.046894
0.035171
0.035171
0.023447
0.011724
0.023447
0.070341
0.093787
0.082064
0.070341
0.058618
0.058618
0.070341
0.070341
0.082064
0.093787
0.093787
0.070341
0.058618
0.058618
0.035171
0.035171
0.035171
0.046894
0.046894
0.035171
0.058618
0.070341
0.058618
0.058618
0.058618
0.070341
0.093787
0.11723
0.11723
0.10551
0.11723
0.18758
0.36343
0.49238
0.46894
0.37515
0.29309
0.22274
0.18758
0.10551
0.058618
0.035171
0
-0.035171
-0.046894
-0.058618
-0.046894
-0.035171
-0.058618
-0.058618
-0.058618
-0.058618
-0.058618
-0.035171
0.011724
0.023447
0.046894
0.058618
0.070341
0.070341
0.070341
0.058618
0.046894
0.035171
0.023447
0.011724
0.011724
0.011724
0.023447
0.035171
0.035171
0.035171
0.011724
0
0.023447
0.070341
0.082064
0.058618
0.058618
0.058618
0.035171
0.011724
0.011724
0.023447
0.011724
0.023447
0.023447
0.023447
0
-0.023447
-0.046894
-0.07034
-0.093787
-0.10551
-0.10551
-0.093787
-0.093787
-0.10551
-0.10551
-0.10551
-0.10551
-0.11723
-0.11723
-0.10551
-0.093787
-0.093787
-0.10551
-0.11723
-0.11723
-0.11723
-0.093787
-0.07034
-0.058618
-0.058618
-0.058618
-0.058618
-0.058618
-0.07034
-0.058618
-0.035171
0.011724
0.046894
0.070341
0.093787
0.10551
0.11723
0.11723
0.1524
0.16413
0.16413
0.16413
0.1524
0.14068
0.12896
0.11723
0.12896
0.12896
0.11723
0.11723
0.10551
0.10551
0.082064
0.070341
0.070341
0.058618
0.058618
0.058618
0.058618
0.046894
0.011724
-0.011724
-0.011724
-0.035171
-0.035171
-0.046894
-0.046894
-0.046894
-0.046894
-0.046894
-0.046894
-0.023447
-0.035171
-0.023447
-0.011724
0.011724
0.046894
0.082064
0.093787
0.11723
0.11723
0.070341
0.011724
-0.011724
-0.023447
-0.023447
-0.011724
-0.011724
-0.011724
0
0.011724
0.023447
0.023447
0.011724
0.011724
0.023447
0.058618
0.082064
0.082064
0.082064
0.093787
0.082064
0.070341
0.082064
0.082064
0.082064
0.070341
0.046894
0.046894
0.046894
0.046894
0.011724
-0.011724
-0.023447
-0.023447
-0.011724
0.011724
0.023447
0.046894
0.035171
0.023447
0.011724
0.023447
0.035171
0.046894
0.058618
0.070341
0.058618
0.070341
0.082064
0.058618
0.046894
0.046894
0.046894
0.035171
0.023447
0.023447
0.011724
0
-0.023447
-0.035171
-0.011724
0.011724
0.023447
0.023447
0.011724
-0.011724
-0.023447
-0.023447
-0.035171
-0.011724
0
0
0.011724
0.011724
0.011724
0.023447
0.035171
0.058618
0.070341
0.082064
0.082064
0.046894
0.023447
0.035171
0.058618
0.035171
0.035171
0.035171
0.035171
0.023447
0.023447
0.046894
0.070341
0.082064
0.093787
0.070341
0.058618
0.046894
0.035171
0.011724
0
0.011724
0.023447
0.058618
0.058618
0.082064
0.093787
0.093787
0.093787
0.10551
0.082064
0.070341
0.058618
0.035171
0.035171
0.058618
0.082064
0.093787
0.12896
0.12896
0.16413
0.16413
0.14068
0.093787
0.070341
0.070341
0.023447
-0.058618
-0.093787
-0.082064
-0.046894
-0.023447
-0.011724
-0.011724
-0.011724
0.011724
0.035171
0.058618
0.046894
0.058618
0.070341
0.070341
0.070341
0.058618
0.058618
0.058618
0.046894
0.046894
0.046894
0.058618
0.082064
0.082064
0.093787
0.070341
0.070341
0.058618
0.058618
0.035171
0.023447
0.023447
0.023447
0.035171
0.035171
0.011724
0.011724
-0.011724
-0.07034
-0.082064
-0.093787
-0.07034
-0.058618
-0.058618
-0.023447
0.093787
0.29309
0.42204
0.41032
0.32826
0.24619
0.18758
0.17585
0.14068
0.070341
0.023447
0.011724
-0.023447
-0.07034
-0.093787
-0.093787
-0.082064
-0.07034
-0.035171
0
0.023447
0.023447
0.023447
0.011724
0.035171
0.046894
0.023447
0
-0.011724
-0.023447
-0.023447
-0.023447
-0.011724
0
0
-0.011724
0
0
0.011724
0.011724
0
0.011724
0
0
-0.023447
-0.023447
-0.011724
-0.023447
-0.023447
-0.023447
-0.035171
-0.046894
-0.058618
-0.046894
-0.046894
-0.046894
-0.058618
-0.058618
-0.082064
-0.082064
-0.082064
-0.10551
-0.12896
-0.12896
-0.12896
-0.12896
-0.11723
-0.11723
-0.12896
-0.10551
-0.12896
-0.14068
-0.14068
-0.12896
-0.093787
-0.10551
-0.12896
-0.1524
-0.16413
-0.16413
-0.1524
-0.14068
-0.082064
-0.046894
-0.023447
0
0
0.035171
0.058618
0.093787
0.11723
0.12896
0.12896
0.1524
0.14068
0.12896
0.093787
0.093787
0.093787
0.10551
0.12896
0.14068
0.14068
0.12896
0.11723
0.082064
0.082064
0.070341
0.093787
0.10551
0.11723
0.10551
0.10551
0.070341
0.035171
0.035171
0.082064
0.082064
0.070341
0.082064
0.082064
0.093787
0.093787
0.093787
0.093787
0.093787
0.093787
0.093787
0.093787
0.082064
0.093787
0.10551
0.11723
0.11723
0.12896
0.12896
0.12896
0.10551
0.10551
0.10551
0.11723
0.11723
0.11723
0.11723
0.093787
0.093787
0.082064
0.10551
0.093787
0.093787
0.10551
0.093787
0.070341
0.070341
0.070341
0.046894
0.046894
0.035171
0.035171
0.058618
0.058618
0.070341
0.058618
0.023447
0
0
0.023447
0.035171
0.035171
0.035171
0.046894
0.058618
0.058618
0.082064
0.070341
0.093787
0.093787
0.082064
0.058618
0.035171
0.035171
0.023447
0.023447
0.023447
0.011724
0
0
0.011724
0.023447
0.011724
0
0.011724
0.023447
0.023447
0.023447
0.035171
0.035171
0.035171
0.046894
0.058618
0.082064
0.082064
0.082064
0.10551
0.082064
0.070341
0.070341
0.058618
0.046894
0.082064
0.10551
0.11723
0.12896
0.093787
0.082064
0.093787
0.070341
0.070341
0.058618
0.082064
0.093787
0.11723
0.14068
0.14068
0.11723
0.11723
0.10551
0.10551
0.082064
0.082064
0.058618
0.035171
0.035171
0.011724
0.011724
0.023447
0
-0.011724
0
0
-0.023447
-0.011724
0.023447
0.046894
0.070341
0.035171
0.011724
0.023447
0.011724
0.011724
0
-0.035171
-0.035171
-0.035171
0
0.046894
0.070341
0.093787
0.10551
0.10551
0.082064
0.082064
0.070341
0.058618
0.070341
0.070341
0.070341
0.093787
0.11723
0.12896
0.14068
0.16413
0.1993
0.17585
0.1524
0.1524
0.10551
0.035171
-0.023447
-0.023447
-0.011724
-0.011724
-0.023447
0
0.011724
0.023447
0.046894
0.082064
0.10551
0.058618
0.035171
0.011724
0.035171
0.046894
0.023447
0.011724
-0.011724
-0.023447
-0.011724
0.023447
0.035171
0.058618
0.058618
0.070341
0.070341
0.082064
0.10551
0.10551
0.11723
0.10551
0.093787
0.082064
0.070341
0.070341
0.046894
0.058618
0.058618
0.058618
0.058618
0.058618
0.058618
0.046894
0.082064
0.16413
0.3517
0.49238
0.48066
0.3986
0.31653
0.24619
0.21102
0.17585
0.12896
0.10551
0.10551
0.093787
0.082064
0.070341
0.070341
0.070341
0.058618
0.046894
0.058618
0.058618
0.035171
0.011724
-0.011724
-0.011724
-0.035171
-0.058618
-0.046894
-0.046894
-0.058618
-0.035171
-0.023447
0
0.011724
0.023447
0.035171
0.035171
0.035171
0.023447
0.011724
0.011724
0
0
-0.011724
-0.035171
-0.058618
-0.07034
-0.058618
-0.082064
-0.082064
-0.093787
-0.093787
-0.10551
-0.10551
-0.10551
-0.093787
-0.10551
-0.093787
-0.093787
-0.12896
-0.16413
-0.18758
-0.21102
-0.1993
-0.18758
-0.17585
-0.17585
-0.16413
-0.1524
-0.12896
-0.10551
-0.082064
-0.082064
-0.10551
-0.12896
-0.12896
-0.12896
-0.11723
-0.093787
-0.07034
-0.035171
-0.011724
0.035171
0.046894
0.046894
0.070341
0.082064
0.046894
0.011724
0
-0.011724
0
0
0.011724
0.011724
-0.011724
-0.023447
0
0
0
-0.023447
-0.046894
-0.07034
-0.082064
-0.082064
-0.082064
-0.07034
-0.046894
-0.035171
-0.023447
-0.023447
-0.011724
-0.011724
-0.023447
-0.011724
-0.011724
-0.011724
-0.035171
-0.035171
-0.023447
-0.023447
-0.035171
-0.046894
-0.046894
-0.035171
-0.011724
0.011724
0.035171
0.035171
0.011724
0
0.023447
0.011724
0.011724
0.011724
0.023447
0.046894
0.058618
0.046894
0.058618
0.058618
0.082064
0.082064
0.082064
0.082064
0.093787
0.10551
0.10551
0.11723
0.11723
0.10551
0.10551
0.11723
0.10551
0.082064
0.070341
0.070341
0.082064
0.070341
0.082064
0.082064
0.070341
0.035171
0
-0.023447
-0.046894
-0.07034
-0.082064
-0.093787
-0.10551
-0.093787
-0.10551
-0.093787
-0.058618
-0.046894
-0.058618
-0.082064
-0.082064
-0.093787
-0.082064
-0.082064
-0.093787
-0.093787
-0.11723
-0.14068
-0.12896
-0.10551
-0.10551
-0.11723
-0.14068
-0.14068
-0.1524
-0.14068
-0.14068
-0.12896
-0.11723
-0.10551
-0.093787
-0.082064
-0.058618
-0.046894
-0.046894
-0.046894
-0.046894
-0.046894
-0.035171
-0.035171
-0.023447
-0.035171
-0.011724
0
0.011724
0.023447
0.023447
0.011724
0.011724
0.011724
0.023447
0.023447
0.035171
0.035171
0.046894
0.070341
0.058618
0.058618
0.058618
0.035171
0.023447
0.023447
0.046894
0.070341
0.070341
0.058618
0.058618
0.058618
0.046894
0.046894
0.046894
0.035171
0
-0.023447
-0.058618
-0.046894
-0.046894
-0.046894
-0.035171
-0.035171
-0.046894
-0.058618
-0.082064
-0.082064
-0.082064
-0.082064
-0.093787
-0.12896
-0.11723
-0.082064
-0.058618
-0.035171
-0.011724
0
-0.011724
-0.011724
-0.023447
-0.023447
-0.023447
-0.023447
-0.023447
-0.023447
0
0.035171
0.070341
0.082064
0.070341
0.035171
0.011724
-0.023447
-0.093787
-0.14068
-0.11723
-0.093787
-0.082064
-0.058618
-0.046894
-0.023447
-0.023447
-0.023447
0.011724
0.023447
0.035171
0.046894
0.023447
0.023447
0.046894
0.058618
0.070341
0.070341
0.082064
0.082064
0.093787
0.093787
0.093787
0.082064
0.070341
0.058618
0.046894
0.035171
0.046894
0.046894
0.035171
0.046894
0.058618
0.070341
0.070341
0.035171
0.011724
0.011724
0
-0.011724
-0.035171
-0.035171
-0.023447
0
0.046894
0.1524
0.37515
0.46894
0.42204
0.32826
0.25792
0.21102
0.1524
0.10551
0.046894
0
-0.046894
-0.07034
-0.093787
-0.093787
-0.07034
-0.07034
-0.082064
-0.082064
-0.058618
-0.035171
-0.035171
-0.035171
-0.035171
-0.023447
-0.023447
-0.035171
-0.058618
-0.046894
-0.046894
-0.023447
-0.023447
-0.035171
-0.023447
-0.011724
-0.023447
0
0
0.023447
0.035171
0.035171
0.023447
0.023447
0.023447
0.035171
0.046894
0.035171
0.035171
0.011724
-0.023447
-0.046894
-0.046894
-0.046894
-0.058618
-0.082064
-0.10551
-0.11723
-0.14068
-0.14068
-0.1524
-0.17585
-0.1993
-0.22274
-0.22274
-0.22274
-0.21102
-0.21102
-0.22274
-0.1993
-0.18758
-0.16413
-0.1524
-0.1524
-0.16413
-0.16413
-0.1524
-0.14068
-0.14068
-0.12896
-0.10551
-0.093787
-0.058618
-0.023447
0.023447
0.046894
0.046894
0.046894
0.058618
0.058618
0.046894
0.035171
0.035171
0.035171
0.035171
0.046894
0.058618
0.058618
0.082064
0.070341
0.082064
0.093787
0.093787
0.11723
0.11723
0.12896
0.12896
0.11723
0.10551
0.082064
0.058618
0.046894
0.046894
0.046894
0.035171
0.023447
0.023447
0.011724
0.011724
0.023447
0.035171
0.046894
0.070341
0.082064
0.093787
0.10551
0.10551
0.10551
0.10551
0.11723
0.10551
0.093787
0.070341
0.058618
0.070341
0.082064
0.093787
0.093787
0.082064
0.082064
0.10551
0.11723
0.1524
0.16413
0.1524
0.12896
0.10551
0.10551
0.093787
0.093787
0.082064
0.070341
0.082064
0.082064
0.058618
0.035171
0.046894
0.035171
0.035171
0.011724
-0.023447
-0.046894
-0.046894
-0.035171
-0.023447
0
0.011724
0.011724
-0.011724
-0.023447
-0.046894
-0.058618
-0.046894
-0.023447
-0.011724
0
-0.011724
-0.011724
-0.046894
-0.07034
-0.082064
-0.093787
-0.11723
-0.10551
-0.093787
-0.082064
-0.082064
-0.093787
-0.10551
-0.10551
-0.082064
-0.082064
-0.058618
-0.058618
-0.058618
-0.058618
-0.046894
-0.035171
-0.011724
-0.011724
0
0.011724
0.011724
0
0
0.011724
-0.011724
-0.011724
-0.011724
0
0.011724
0.023447
0.023447
0.023447
0.011724
0
0
-0.023447
-0.046894
-0.07034
-0.11723
-0.11723
-0.11723
-0.12896
-0.14068
-0.12896
-0.10551
-0.093787
-0.058618
-0.035171
-0.023447
-0.035171
-0.011724
0
0.023447
0.011724
0
-0.011724
-0.023447
-0.035171
-0.035171
-0.023447
-0.011724
0
0.011724
0.011724
0.011724
0.023447
0.046894
0.046894
0.058618
0.058618
0.058618
0.046894
0.035171
0.023447
0.035171
0.035171
0.035171
0.046894
0.070341
0.082064
0.082064
0.070341
0.058618
0.058618
0.046894
0.070341
0.070341
0.058618
0.070341
0.093787
0.082064
0.082064
0.070341
0.082064
0.093787
0.093787
0.093787
0.082064
0.093787
0.11723
0.10551
0.093787
0.093787
0.082064
0.070341
0.046894
-0.023447
-0.082064
-0.093787
-0.10551
-0.093787
-0.07034
-0.058618
-0.058618
-0.046894
-0.035171
-0.011724
0.011724
0.035171
0.023447
0.023447
0
0.023447
0.035171
0.058618
0.046894
0.011724
-0.011724
0
0.023447
0.035171
0.046894
0.046894
0.035171
0.035171
0.035171
0.035171
0.023447
0.023447
0.035171
0.035171
0.023447
0.011724
-0.011724
-0.035171
-0.046894
-0.046894
-0.058618
-0.058618
-0.058618
-0.046894
-0.035171
0.046894
0.22274
0.41032
0.45721
0.38687
0.31653
0.25792
0.22274
0.18758
0.1524
0.12896
0.093787
0.058618
0.035171
0.011724
0
-0.011724
-0.011724
-0.023447
0
0.011724
0.011724
-0.011724
-0.023447
-0.023447
-0.035171
-0.058618
-0.07034
-0.07034
-0.07034
-0.058618
-0.035171
-0.023447
-0.011724
0.011724
0.035171
0.035171
0.011724
0.011724
0
0
0.011724
0.011724
0.023447
0.046894
0.046894
0.046894
0.058618
0.035171
0.011724
0.023447
0.046894
0.046894
0.058618
0.023447
-0.023447
-0.082064
-0.11723
-0.16413
-0.18758
-0.18758
-0.18758
-0.17585
-0.18758
-0.18758
-0.18758
-0.17585
-0.17585
-0.16413
-0.14068
-0.12896
-0.12896
-0.11723
-0.11723
-0.10551
-0.093787
-0.058618
-0.07034
-0.07034
-0.07034
-0.046894
-0.035171
-0.023447
-0.023447
0
0.011724
0.035171
0.046894
0.058618
0.070341
0.058618
0.058618
0.070341
0.070341
0.070341
0.046894
0.035171
0.035171
0.011724
0
0.011724
0.035171
0.058618
0.058618
0.070341
0.070341
0.058618
0.082064
0.093787
0.12896
0.12896
0.14068
0.14068
0.14068
0.16413
0.16413
0.16413
0.17585
0.17585
0.18758
0.1993
0.18758
0.1993
0.1993
0.18758
0.16413
0.1524
0.14068
0.12896
0.14068
0.12896
0.11723
0.10551
0.10551
0.082064
0.058618
0.023447
-0.011724
0
0.023447
0.035171
0.035171
0.035171
0.023447
0.023447
0.035171
0.046894
0.035171
0
-0.023447
-0.023447
-0.035171
-0.035171
-0.023447
-0.023447
-0.023447
-0.011724
-0.011724
-0.011724
-0.023447
-0.023447
-0.011724
0
0
-0.011724
-0.011724
0
-0.011724
-0.023447
-0.023447
-0.035171
-0.035171
-0.023447
-0.023447
0
0
0.011724
0.035171
0.035171
-0.011724
-0.046894
-0.035171
-0.035171
-0.035171
-0.023447
-0.023447
-0.023447
-0.023447
-0.023447
-0.023447
-0.035171
-0.035171
-0.035171
-0.046894
-0.035171
-0.023447
-0.011724
0
0
0
0
0
0.023447
0.023447
0.035171
0.023447
0.023447
0.023447
0.035171
0.046894
0.058618
0.058618
0.058618
0.058618
0.070341
0.070341
0.058618
0.070341
0.082064
0.093787
0.10551
0.12896
0.12896
0.12896
0.12896
0.10551
0.10551
0.082064
0.070341
0.058618
0.035171
0.023447
0.023447
0.035171
0.046894
0.046894
0.035171
0
-0.035171
-0.046894
-0.058618
-0.046894
-0.011724
0.011724
0.035171
0.046894
0.035171
0.046894
0.046894
0.035171
0.035171
0.035171
0.011724
0.011724
0.011724
0.011724
0.035171
0.058618
0.070341
0.070341
0.082064
0.082064
0.070341
0.058618
0.046894
0.035171
0.035171
0.023447
0.035171
0.023447
0.023447
0.023447
0.023447
0.046894
0.070341
0.093787
0.12896
0.17585
0.1993
0.1993
0.18758
0.16413
0.11723
0.070341
0.035171
-0.023447
-0.082064
-0.082064
-0.07034
-0.035171
0.011724
0.046894
0.046894
0.046894
0.070341
0.10551
0.10551
0.070341
0.058618
0.070341
0.070341
0.070341
0.093787
0.10551
0.11723
0.11723
0.11723
0.10551
0.10551
0.093787
0.093787
0.10551
0.10551
0.093787
0.082064
0.082064
0.070341
0.058618
0.058618
0.035171
0.023447
0
0
0.011724
0.023447
0
-0.035171
-0.035171
-0.035171
-0.035171
0
0.070341
0.22274
0.41032
0.44549
0.37515
0.29309
0.22274
0.1524
0.093787
0.070341
0.058618
0.023447
0
-0.035171
-0.07034
-0.093787
-0.093787
-0.093787
-0.10551
-0.11723
-0.11723
-0.093787
-0.082064
-0.07034
-0.046894
-0.023447
-0.046894
-0.035171
-0.046894
-0.023447
-0.023447
0
0.011724
0.023447
0.023447
0.011724
0.023447
0.023447
0.035171
0.058618
0.070341
0.058618
0.046894
0.035171
0.035171
0.046894
0.046894
0.023447
0.011724
-0.011724
0
0
-0.023447
-0.058618
-0.093787
-0.093787
-0.082064
-0.082064
-0.07034
-0.07034
-0.058618
-0.058618
-0.035171
-0.046894
-0.07034
-0.093787
-0.093787
-0.093787
-0.082064
-0.07034
-0.07034
-0.082064
-0.07034
-0.058618
-0.023447
-0.011724
-0.035171
-0.023447
-0.035171
-0.011724
0
0
0.011724
0.023447
0.035171
0.035171
0.046894
0.058618
0.058618
0.058618
0.046894
0.035171
0.046894
0.058618
0.070341
0.082064
0.082064
0.082064
0.10551
0.11723
0.10551
0.093787
0.082064
0.070341
0.058618
0.046894
0.046894
0.046894
0.046894
0.023447
0
-0.011724
-0.011724
-0.011724
0.011724
0.011724
0.011724
0.023447
0.046894
0.046894
0.035171
0.035171
0.046894
0.093787
0.093787
0.082064
0.093787
0.093787
0.10551
0.10551
0.12896
0.14068
0.14068
0.11723
0.093787
0.093787
0.070341
0.046894
0.035171
0.035171
0.058618
0.070341
0.058618
0.035171
0
-0.011724
-0.023447
0
0.011724
0.035171
0.035171
0.035171
0.046894
0.070341
0.082064
0.093787
0.093787
0.093787
0.082064
0.093787
0.10551
0.10551
0.10551
0.10551
0.11723
0.11723
0.11723
0.11723
0.12896
0.10551
0.082064
0.070341
0.058618
0.070341
0.082064
0.082064
0.082064
0.082064
0.082064
0.082064
0.070341
0.070341
0.070341
0.023447
0
0
0
-0.011724
-0.023447
0.011724
0.011724
0.011724
0
-0.023447
-0.058618
-0.058618
-0.082064
-0.082064
-0.093787
-0.093787
-0.10551
-0.093787
-0.082064
-0.093787
-0.082064
-0.058618
-0.046894
-0.058618
-0.046894
-0.058618
-0.082064
-0.07034
-0.046894
-0.046894
-0.046894
-0.046894
-0.035171
-0.011724
0.023447
0.035171
0.046894
0.058618
0.046894
0.035171
0.023447
0.023447
0.035171
0.046894
0.058618
0.058618
0.070341
0.082064
0.058618
0.023447
0.011724
0.035171
0.035171
0.023447
0.023447
0.046894
0.035171
0.023447
0.023447
0.035171
0.046894
0.035171
0.023447
0.023447
0.035171
0.046894
0.058618
0.058618
0.070341
0.093787
0.093787
0.10551
0.093787
0.082064
0.070341
0.046894
0.023447
0.023447
0.011724
0
0.011724
0.011724
0.023447
0
-0.011724
-0.011724
0
0.011724
0.023447
0.046894
0.058618
0.070341
0.058618
0.058618
0.035171
0.023447
0.035171
0.023447
0.011724
-0.023447
-0.023447
-0.046894
-0.058618
-0.07034
-0.093787
-0.12896
-0.16413
-0.17585
-0.16413
-0.14068
-0.093787
-0.07034
-0.046894
-0.046894
-0.011724
0
0.023447
0.011724
0
0
0
0
-0.011724
0
0.011724
0.023447
0.070341
0.093787
0.10551
0.12896
0.1524
0.16413
0.17585
0.17585
0.17585
0.17585
0.16413
0.1524
0.14068
0.10551
0.093787
0.093787
0.082064
0.070341
0.070341
0.070341
0.093787
0.082064
0.070341
0.070341
0.058618
0.093787
0.1993
0.36343
0.42204
0.38687
0.29309
0.18758
0.12896
0.093787
0.070341
0.023447
-0.011724
-0.023447
-0.046894
-0.07034
-0.082064
-0.10551
-0.10551
-0.093787
-0.082064
-0.07034
-0.082064
-0.082064
-0.093787
-0.082064
-0.082064
-0.082064
-0.082064
-0.046894
-0.058618
-0.082064
-0.093787
-0.10551
-0.10551
-0.11723
-0.14068
-0.1524
-0.14068
-0.12896
-0.12896
-0.14068
-0.10551
-0.093787
-0.093787
-0.093787
-0.093787
-0.093787
-0.07034
-0.058618
-0.058618
-0.046894
-0.046894
-0.046894
-0.035171
-0.058618
-0.058618
-0.058618
-0.046894
-0.046894
-0.023447
-0.011724
0
0
0
0
0
-0.035171
-0.046894
-0.058618
-0.058618
-0.07034
-0.082064
-0.10551
-0.11723
-0.12896
-0.12896
-0.12896
-0.12896
-0.12896
-0.11723
-0.093787
-0.10551
-0.11723
-0.12896
-0.11723
-0.093787
-0.07034
-0.046894
-0.023447
0
0.023447
0.035171
0.046894
0.070341
0.070341
0.058618
0.035171
0
-0.011724
-0.035171
-0.023447
-0.023447
-0.011724
-0.011724
0
-0.011724
0.011724
0.023447
0.011724
0.011724
0
0
-0.011724
-0.023447
-0.035171
-0.046894
-0.07034
-0.093787
-0.082064
-0.093787
-0.10551
-0.10551
-0.11723
-0.12896
-0.11723
-0.10551
-0.10551
-0.093787
-0.07034
-0.058618
-0.058618
-0.058618
-0.046894
-0.046894
-0.046894
-0.058618
-0.046894
-0.035171
-0.023447
0
0.011724
0.035171
0.058618
0.082064
0.093787
0.093787
0.082064
0.070341
0.058618
0.058618
0.058618
0.046894
0.058618
0.070341
0.058618
0.035171
0.023447
0.023447
0.011724
0.011724
0
0
0.023447
0.046894
0.046894
0.070341
0.070341
0.046894
0.011724
0.011724
0.023447
0.023447
0.011724
-0.011724
-0.011724
0
0.023447
0.035171
0.023447
0
-0.023447
-0.011724
0
0.023447
0.011724
0
-0.023447
-0.046894
-0.023447
-0.011724
0
0.011724
0.011724
0.011724
0
-0.011724
-0.023447
-0.035171
-0.035171
-0.035171
-0.035171
-0.035171
-0.035171
-0.035171
-0.058618
-0.093787
-0.11723
-0.10551
-0.10551
-0.10551
-0.093787
-0.082064
-0.058618
-0.046894
-0.046894
-0.023447
-0.023447
-0.023447
-0.011724
0
0.011724
0.023447
0.011724
0
0.011724
0
0.011724
0.023447
0.035171
0.058618
0.070341
0.070341
0.070341
0.082064
0.058618
0.070341
0.070341
0.046894
0.035171
0.035171
0.023447
0.011724
0.046894
0.093787
0.11723
0.10551
0.10551
0.093787
0.082064
0.10551
0.093787
0.093787
0.093787
0.12896
0.1524
0.14068
0.11723
0.082064
0.058618
0.058618
0.082064
0.082064
0.093787
0.082064
0.058618
0.035171
0.023447
0.011724
-0.011724
-0.035171
-0.046894
-0.035171
-0.046894
-0.035171
-0.035171
-0.011724
0
0
0.011724
0.046894
0.035171
0.035171
0.035171
0.035171
0.011724
0.023447
0.023447
0.035171
0.035171
0.035171
0.046894
0.058618
0.082064
0.082064
0.082064
0.070341
0.058618
0.023447
0
-0.058618
-0.11723
-0.1524
-0.1524
-0.12896
-0.093787
-0.058618
-0.058618
-0.058618
-0.035171
-0.011724
0
-0.023447
-0.046894
-0.046894
-0.058618
-0.046894
-0.046894
-0.046894
-0.07034
-0.07034
-0.058618
-0.058618
-0.035171
-0.011724
0.023447
0.035171
0.046894
0.046894
0.058618
0.082064
0.10551
0.10551
0.10551
0.10551
0.12896
0.10551
0.082064
0.058618
0.046894
0.011724
0.011724
0
0
-0.011724
-0.011724
-0.023447
0
0.14068
0.3517
0.43377
0.3986
0.33998
0.28136
0.24619
0.1993
0.1524
0.093787
0.058618
0.023447
0.011724
0.035171
0.023447
0.046894
0.058618
0.070341
0.070341
0.046894
0.035171
0.023447
0.011724
0
0.011724
0.023447
0.035171
0.058618
0.070341
0.082064
0.093787
0.10551
0.093787
0.082064
0.070341
0.070341
0.035171
-0.023447
-0.058618
-0.058618
-0.046894
-0.023447
-0.035171
-0.046894
-0.07034
-0.082064
-0.093787
-0.12896
-0.14068
-0.1524
-0.14068
-0.1524
-0.16413
-0.1993
-0.23447
-0.23447
-0.23447
-0.22274
-0.22274
-0.18758
-0.17585
-0.16413
-0.1524
-0.17585
-0.18758
-0.21102
-0.21102
-0.1993
-0.18758
-0.18758
-0.17585
-0.17585
-0.17585
-0.16413
-0.16413
-0.14068
-0.12896
-0.11723
-0.10551
-0.082064
-0.07034
-0.058618
-0.046894
-0.035171
-0.023447
-0.011724
-0.011724
0.011724
0.046894
0.070341
0.082064
0.070341
0.082064
0.070341
0.058618
0.058618
0.046894
0.035171
0.046894
0.046894
0.058618
0.046894
0.023447
0.023447
0.011724
-0.011724
-0.023447
-0.011724
0.011724
0.011724
0
0.011724
0
0
-0.011724
0
0.023447
0.023447
0.046894
0.058618
0.035171
0.035171
0.035171
0.023447
0.023447
0.023447
0.023447
0.035171
0.035171
0.035171
0.046894
0.058618
0.070341
0.058618
0.058618
0.046894
0.046894
0.058618
0.058618
0.058618
0.058618
0.070341
0.058618
0.046894
0.058618
0.070341
0.082064
0.082064
0.082064
0.082064
0.070341
0.082064
0.082064
0.093787
0.10551
0.11723
0.11723
0.12896
0.14068
0.12896
0.1524
0.14068
0.12896
0.10551
0.082064
0.070341
0.058618
0.058618
0.058618
0.058618
0.070341
0.046894
0.035171
0.035171
0
-0.035171
-0.07034
-0.07034
-0.046894
-0.023447
-0.035171
-0.046894
-0.058618
-0.046894
-0.058618
-0.046894
-0.035171
-0.023447
-0.046894
-0.10551
-0.14068
-0.1524
-0.1524
-0.14068
-0.12896
-0.11723
-0.10551
-0.093787
-0.07034
-0.046894
-0.046894
-0.035171
-0.035171
-0.035171
-0.035171
-0.023447
-0.023447
0
0.023447
0.011724
0.011724
0.023447
0.023447
0.023447
0.023447
0.023447
0.046894
0.058618
0.058618
0.035171
0.011724
-0.011724
-0.035171
-0.046894
-0.046894
-0.058618
-0.058618
-0.058618
-0.082064
-0.093787
-0.11723
-0.12896
-0.11723
-0.10551
-0.10551
-0.082064
-0.058618
-0.046894
-0.035171
-0.011724
0
0.011724
0
0
0.023447
0.035171
0.035171
0.023447
0.046894
0.058618
0.082064
0.093787
0.070341
0.058618
0.058618
0.070341
0.082064
0.070341
0.070341
0.023447
-0.035171
-0.07034
-0.11723
-0.14068
-0.14068
-0.11723
-0.093787
-0.093787
-0.07034
-0.07034
-0.082064
-0.10551
-0.11723
-0.12896
-0.14068
-0.12896
-0.10551
-0.10551
-0.093787
-0.093787
-0.07034
-0.058618
-0.07034
-0.046894
-0.035171
-0.011724
-0.023447
-0.035171
-0.058618
-0.035171
-0.011724
0.023447
0.046894
0.058618
0.058618
0.082064
0.10551
0.12896
0.1524
0.14068
0.10551
0.093787
0.070341
0.023447
-0.035171
-0.035171
-0.023447
0
0.035171
0.046894
0.058618
0.058618
0.058618
0.082064
0.093787
0.093787
0.10551
0.11723
0.14068
0.1524
0.1524
0.16413
0.18758
0.1993
0.1993
0.18758
0.18758
0.1993
0.16413
0.14068
0.12896
0.10551
0.10551
0.10551
0.093787
0.082064
0.082064
0.082064
0.082064
0.082064
0.070341
0.046894
0.046894
0.046894
0.023447
0.035171
0.011724
0
-0.011724
0.011724
0.10551
0.29309
0.43377
0.43377
0.36343
0.28136
0.22274
0.18758
0.1524
0.10551
0.058618
0.011724
-0.035171
-0.082064
-0.093787
-0.10551
-0.10551
-0.14068
-0.18758
-0.18758
-0.18758
-0.17585
-0.16413
-0.14068
-0.11723
-0.10551
-0.11723
-0.12896
-0.12896
-0.12896
-0.14068
-0.14068
-0.16413
-0.17585
-0.17585
-0.16413
-0.1524
-0.1524
-0.14068
-0.11723
-0.093787
-0.058618
-0.058618
-0.058618
-0.058618
-0.07034
-0.07034
-0.082064
-0.093787
-0.07034
-0.07034
-0.07034
-0.07034
-0.058618
-0.046894
-0.023447
-0.023447
0
0
-0.023447
-0.046894
-0.07034
-0.093787
-0.11723
-0.12896
-0.12896
-0.11723
-0.11723
-0.1524
-0.16413
-0.17585
-0.18758
-0.16413
-0.1524
-0.11723
-0.093787
-0.11723
-0.12896
-0.12896
-0.10551
-0.082064
-0.058618
-0.035171
0
0.035171
0.058618
0.070341
0.093787
0.093787
0.093787
0.093787
0.10551
0.10551
0.093787
0.10551
0.10551
0.11723
0.11723
0.12896
0.12896
0.14068
0.12896
0.093787
0.070341
0.070341
0.058618
0.070341
0.070341
0.058618
0.058618
0.046894
0.046894
0.058618
0.035171
0.035171
0.035171
0.046894
0.046894
0.046894
0.058618
0.046894
0.058618
0.070341
0.046894
0.023447
0.011724
0
-0.011724
-0.011724
-0.035171
-0.046894
-0.046894
-0.046894
-0.058618
-0.07034
-0.07034
-0.082064
-0.10551
-0.10551
-0.10551
-0.10551
-0.093787
-0.082064
-0.058618
-0.046894
-0.046894
-0.058618
-0.058618
-0.046894
-0.046894
-0.035171
-0.035171
-0.035171
-0.023447
-0.023447
-0.011724
-0.023447
0
0.023447
0.046894
0.058618
0.082064
0.070341
0.058618
0.058618
0.058618
0.058618
0.082064
0.093787
0.093787
0.093787
0.070341
0.058618
0.046894
0.046894
0.011724
0.023447
0.035171
0.058618
0.058618
0.058618
0.058618
0.046894
0.070341
0.058618
0.070341
0.058618
0.058618
0.082064
0.093787
0.10551
0.093787
0.10551
0.10551
0.10551
0.10551
0.093787
0.093787
0.082064
0.082064
0.093787
0.093787
0.093787
0.10551
0.10551
0.12896
0.16413
0.17585
0.18758
0.17585
0.12896
0.10551
0.093787
0.082064
0.082064
0.070341
0.082064
0.093787
0.093787
0.093787
0.093787
0.11723
0.11723
0.082064
0.058618
0.046894
0.035171
0.011724
0
0
0
0
-0.046894
-0.058618
-0.058618
-0.035171
-0.011724
0
0
0
0
0.011724
0.023447
0.035171
0.046894
0.058618
0.058618
0.046894
0.023447
0.011724
0.023447
0.011724
0.011724
0.011724
0.011724
0.011724
0.011724
-0.011724
-0.011724
-0.011724
-0.011724
0
-0.011724
-0.023447
-0.058618
-0.093787
-0.093787
-0.10551
-0.11723
-0.10551
-0.10551
-0.082064
-0.093787
-0.093787
-0.07034
-0.058618
-0.07034
-0.093787
-0.093787
-0.10551
-0.11723
-0.11723
-0.12896
-0.12896
-0.11723
-0.12896
-0.11723
-0.11723
-0.10551
-0.082064
-0.082064
-0.07034
-0.07034
-0.046894
-0.023447
0
0.023447
0.023447
0.035171
0.023447
0.035171
0.023447
0.023447
0.035171
0.035171
0.035171
0.035171
0.023447
0.011724
0
-0.011724
0.011724
0
-0.011724
-0.011724
0
0
0.011724
0.023447
0
-0.023447
-0.035171
-0.046894
-0.035171
-0.035171
-0.046894
-0.046894
-0.035171
-0.035171
-0.035171
-0.035171
-0.046894
-0.011724
0.011724
0.011724
0.035171
0.046894
0.058618
0.035171
0.046894
0.035171
0.023447
0
-0.011724
0
0.023447
0.023447
0.023447
0.011724
0.011724
0.011724
-0.011724
0
-0.011724
0
0
0
0.011724
0.023447
0.011724
0.035171
0.058618
0.058618
0.082064
0.070341
0.070341
0.058618
0.058618
0.046894
0.046894
0.035171
0.011724
0
0.023447
0.035171
0.035171
0.058618
0.058618
0.082064
0.070341
0.070341
0.058618
0.046894
0.058618
0.058618
0.070341
0.046894
0.058618
0.070341
0.082064
0.082064
0.082064
0.070341
0.058618
0.070341
0.093787
0.10551
0.093787
0.093787
0.093787
0.10551
0.082064
0.082064
0.10551
0.10551
0.093787
0.082064
0.093787
0.093787
0.10551
0.093787
0.093787
0.082064
0.10551
0.093787
0.10551
0.10551
0.12896
0.12896
0.10551
0.082064
0.035171
0.011724
-0.011724
-0.023447
-0.035171
-0.058618
-0.058618
-0.046894
-0.058618
-0.07034
-0.082064
-0.10551
-0.12896
-0.12896
-0.14068
-0.1524
-0.12896
-0.11723
-0.093787
-0.082064
-0.093787
-0.10551
-0.10551
-0.11723
-0.10551
-0.082064
-0.07034
-0.058618
-0.046894
-0.035171
-0.011724
0.011724
0.023447
0.023447
0.023447
0.035171
0.046894
0.046894
0.046894
0.046894
0.046894
0.070341
0.093787
0.093787
0.11723
0.10551
0.11723
0.11723
0.10551
0.082064
0.093787
0.10551
0.10551
0.12896
0.11723
0.10551
0.082064
0.070341
0.058618
0.082064
0.082064
0.058618
0.058618
0.058618
0.082064
0.082064
0.082064
0.082064
0.082064
0.093787
0.10551
0.082064
0.070341
0.070341
0.070341
0.046894
0.023447
0.023447
0.023447
0.046894
0.082064
0.082064
0.058618
0.058618
0.046894
0.046894
0.035171
0.023447
0.035171
0.035171
0.023447
0.023447
0.011724
0.011724
0
0
-0.023447
0
0.011724
0
-0.035171
-0.058618
-0.046894
-0.023447
-0.035171
-0.023447
-0.011724
0.011724
0.011724
-0.023447
-0.058618
-0.082064
-0.11723
-0.17585
-0.18758
-0.16413
-0.11723
-0.082064
-0.046894
-0.035171
-0.058618
-0.058618
-0.035171
-0.023447
-0.011724
-0.011724
0
0.011724
0.011724
0.011724
0.011724
0
-0.023447
-0.011724
0
0.011724
0.011724
0.023447
0.035171
0.046894
0.058618
0.046894
0.035171
0.023447
0.035171
0.046894
0.035171
0.023447
0.023447
0.023447
0.046894
0.035171
0.035171
0.070341
0.14068
0.30481
0.42204
0.3986
0.31653
0.25792
0.1993
0.18758
0.14068
0.11723
0.082064
0.058618
0.046894
0.023447
0.023447
0.011724
0.035171
0.023447
0.023447
0.023447
0.011724
0
0
0.011724
0.023447
0.046894
0.058618
0.058618
0.058618
0.070341
0.070341
0.093787
0.082064
0.082064
0.070341
0.058618
0.046894
0.058618
0.046894
0.046894
0.035171
0.011724
-0.011724
-0.011724
-0.023447
-0.035171
-0.046894
-0.046894
-0.046894
-0.046894
-0.046894
-0.023447
-0.011724
-0.011724
-0.011724
0.011724
0.011724
-0.046894
-0.082064
-0.10551
-0.10551
-0.10551
-0.11723
-0.14068
-0.1524
-0.17585
-0.17585
-0.17585
-0.1993
-0.21102
-0.22274
-0.21102
-0.18758
-0.21102
-0.23447
-0.24619
-0.22274
-0.21102
-0.18758
-0.18758
-0.17585
-0.1524
-0.12896
-0.10551
-0.082064
-0.058618
-0.07034
-0.082064
-0.082064
-0.082064
-0.082064
-0.058618
-0.011724
0
0
0.011724
0
-0.011724
-0.011724
0.011724
0.035171
0.046894
0.058618
0.046894
0.035171
0.035171
0.035171
0.023447
-0.011724
0
0
0
0.023447
0.035171
0.035171
0.046894
0.058618
0.035171
0.035171
0.046894
0.023447
0.023447
0.023447
0.011724
0.023447
0.035171
0.046894
0.046894
0.058618
0.058618
0.070341
0.093787
0.093787
0.093787
0.093787
0.093787
0.10551
0.11723
0.1524
0.17585
0.16413
0.1524
0.1524
0.17585
0.17585
0.16413
0.1524
0.11723
0.11723
0.10551
0.12896
0.12896
0.12896
0.12896
0.11723
0.11723
0.082064
0.070341
0.035171
0.035171
0.023447
0.023447
0.046894
0.046894
0.023447
0.046894
0.058618
0.070341
0.082064
0.082064
0.093787
0.082064
0.070341
0.082064
0.082064
0.10551
0.10551
0.082064
0.070341
0.082064
0.058618
0.058618
0.046894
0.011724
0.011724
0.023447
0.023447
0.035171
0.023447
0.011724
0.011724
0.011724
0
0.011724
0.023447
0.011724
0.023447
0.035171
0.058618
0.070341
0.058618
0.058618
0.035171
0.023447
0.011724
0.011724
0
0.011724
0.011724
0
0
0.023447
0.035171
0.046894
0.046894
0.046894
0.046894
0.023447
0.023447
0
0
0.011724
0.023447
0.035171
0.035171
0.035171
0.023447
0
0.011724
0.023447
0.023447
0.023447
0.035171
0.046894
0.035171
0.035171
0.046894
0.082064
0.11723
0.10551
0.093787
0.070341
0.058618
0.070341
0.082064
0.093787
0.093787
0.082064
0.070341
0.070341
0.046894
0.023447
0
-0.011724
-0.011724
-0.011724
0
0.011724
0.035171
0.058618
0.058618
0.070341
0.070341
0.046894
0.046894
0.035171
0.046894
0.058618
0.070341
0.070341
0.058618
0.058618
0.070341
0.082064
0.082064
0.046894
0.035171
0.023447
0.023447
0.011724
0.023447
0.023447
0.023447
0.011724
0
0
0.011724
0.011724
0.011724
0.011724
0.023447
0.011724
0.035171
0.046894
0.046894
0.058618
0.058618
0.058618
0.058618
0.046894
0.023447
0.011724
0.011724
0
-0.023447
-0.046894
-0.035171
-0.035171
-0.023447
-0.011724
-0.011724
0
0.023447
0.023447
0.023447
0.023447
0.023447
0.023447
0.023447
0.023447
0.035171
0.046894
0.070341
0.082064
0.10551
0.11723
0.10551
0.10551
0.10551
0.10551
0.11723
0.11723
0.093787
0.093787
0.082064
0.082064
0.070341
0.046894
0.011724
0
0
0.011724
0.023447
0.046894
0.058618
0.082064
0.082064
0.11723
0.12896
0.14068
0.1524
0.14068
0.10551
0.093787
0.058618
0.046894
0.035171
0.035171
0.035171
0.035171
0.058618
0.058618
0.070341
0.058618
0.035171
0.023447
0.023447
0.046894
0.058618
0.058618
0.046894
0
-0.046894
-0.07034
-0.10551
-0.16413
-0.1993
-0.17585
-0.11723
-0.058618
-0.023447
-0.011724
0
0.011724
0.035171
0.058618
0.058618
0.082064
0.093787
0.082064
0.058618
0.046894
0.035171
0.023447
0.023447
0.011724
0.011724
0.023447
0.035171
0.023447
0
-0.011724
-0.011724
0.011724
0
0.011724
0.011724
0.023447
0.046894
0.035171
0.035171
0.023447
0.023447
0.023447
0.023447
0.011724
0
-0.035171
-0.023447
0.058618
0.21102
0.3517
0.32826
0.22274
0.14068
0.093787
0.058618
0.035171
0
-0.023447
-0.058618
-0.093787
-0.12896
-0.14068
-0.12896
-0.10551
-0.10551
-0.10551
-0.10551
-0.10551
-0.12896
-0.16413
-0.21102
-0.21102
-0.1993
-0.18758
-0.16413
-0.12896
-0.10551
-0.10551
-0.11723
-0.14068
-0.14068
-0.10551
-0.093787
-0.07034
-0.058618
-0.058618
-0.023447
-0.023447
-0.035171
-0.035171
-0.035171
-0.011724
-0.023447
-0.035171
-0.035171
-0.023447
-0.023447
-0.023447
-0.023447
-0.023447
-0.023447
-0.011724
-0.011724
-0.035171
-0.035171
-0.011724
0.011724
0.011724
0
0
-0.011724
-0.011724
0
-0.011724
-0.035171
-0.035171
-0.046894
-0.046894
-0.07034
-0.07034
-0.07034
-0.07034
-0.082064
-0.082064
-0.082064
-0.07034
-0.082064
-0.093787
-0.093787
-0.082064
-0.046894
-0.023447
-0.011724
0.023447
0.046894
0.046894
0.058618
0.046894
0.046894
0.058618
0.023447
0
-0.023447
-0.046894
-0.035171
-0.046894
-0.035171
-0.035171
-0.011724
-0.011724
0.011724
0.011724
0.011724
0
0.023447
0.035171
0.058618
0.070341
0.093787
0.10551
0.082064
0.058618
0.035171
0.035171
0.046894
0.070341
0.046894
0.035171
0.011724
-0.011724
-0.011724
-0.011724
-0.011724
-0.023447
-0.035171
0.011724
0.023447
0.035171
0.046894
0.058618
0.070341
0.082064
0.082064
0.058618
0.058618
0.070341
0.082064
0.070341
0.058618
0.035171
0.046894
0.035171
0.046894
0.046894
0.023447
0.011724
0.011724
0.011724
0.011724
0.011724
0
0
0
0.023447
0.011724
0.011724
0.023447
0.023447
0.023447
0.023447
0.023447
0.058618
0.070341
0.070341
0.035171
0.035171
0.023447
0.011724
0.023447
0.023447
0.011724
0
0.011724
0
0
0.023447
0.035171
0.023447
0.046894
0.046894
0.035171
0.046894
0.035171
0.023447
0.023447
0.023447
0.023447
0.023447
0.035171
0.046894
0.058618
0.093787
0.12896
0.1524
0.1524
0.14068
0.12896
0.12896
0.14068
0.1524
0.17585
0.18758
0.18758
0.18758
0.17585
0.18758
0.18758
0.16413
0.14068
0.11723
0.12896
0.11723
0.14068
0.1524
0.1524
0.1524
0.14068
0.10551
0.10551
0.093787
0.093787
0.082064
0.10551
0.10551
0.093787
0.093787
0.10551
0.10551
0.070341
0.046894
0.035171
0
-0.046894
-0.093787
-0.10551
-0.11723
-0.11723
-0.10551
-0.082064
-0.082064
-0.082064
-0.082064
-0.093787
-0.093787
-0.093787
-0.082064
-0.07034
-0.058618
-0.058618
-0.058618
-0.07034
-0.07034
-0.058618
-0.035171
-0.023447
-0.023447
-0.023447
-0.035171
-0.046894
-0.046894
-0.046894
-0.046894
-0.046894
-0.035171
-0.035171
-0.035171
-0.035171
-0.035171
-0.046894
-0.023447
-0.011724
0.023447
0.023447
0.011724
0.011724
0.035171
0.023447
0.023447
0.023447
0.035171
0.046894
0.058618
0.035171
0.023447
0.011724
0
-0.011724
-0.023447
-0.023447
-0.011724
0.023447
0.058618
0.070341
0.082064
0.070341
0.093787
0.093787
0.082064
0.046894
0.023447
0.035171
0.046894
0.046894
0.035171
0.023447
0.035171
0.035171
0.035171
0.023447
0.023447
0.035171
0.035171
0.046894
0.058618
0.070341
0.070341
0.082064
0.070341
0.070341
0.058618
0.035171
0.023447
0.011724
0
-0.035171
-0.035171
-0.023447
-0.011724
-0.011724
-0.023447
-0.046894
-0.035171
-0.035171
-0.035171
-0.035171
-0.023447
-0.023447
0.011724
0.023447
0.035171
0.035171
0.023447
0.011724
0.023447
0.035171
0.011724
0.023447
0.023447
0.023447
0.011724
0.023447
0.035171
0.046894
0.046894
0.058618
0.046894
0.058618
0.070341
0.035171
-0.023447
-0.058618
-0.07034
-0.058618
-0.046894
-0.035171
0
0.023447
0.035171
0.035171
0.046894
0.058618
0.070341
0.070341
0.058618
0.058618
0.058618
0.035171
-0.023447
-0.058618
-0.046894
-0.023447
-0.011724
0
0
-0.023447
-0.035171
-0.023447
-0.011724
0
0.023447
0.035171
0.046894
0.046894
0.046894
0.046894
0.058618
0.058618
0.070341
0.070341
0.058618
0.070341
0.093787
0.082064
0.093787
0.10551
0.11723
0.11723
0.11723
0.12896
0.14068
0.14068
0.14068
0.11723
0.12896
0.11723
0.11723
0.12896
0.12896
0.11723
0.11723
0.1524
0.26964
0.44549
0.52755
0.48066
0.41032
0.32826
0.26964
0.23447
0.18758
0.12896
0.093787
0.093787
0.082064
0.093787
0.082064
0.070341
0.070341
0.070341
0.082064
0.070341
0.023447
0.011724
0
0
-0.023447
-0.046894
-0.07034
-0.093787
-0.11723
-0.12896
-0.1524
-0.1524
-0.1524
-0.14068
-0.12896
-0.14068
-0.14068
-0.1524
-0.1524
-0.14068
-0.12896
-0.10551
-0.093787
-0.10551
-0.10551
-0.11723
-0.10551
-0.093787
-0.093787
-0.082064
-0.07034
-0.046894
-0.035171
-0.058618
-0.058618
-0.058618
-0.058618
-0.035171
0
0.011724
0
0
0.011724
0
0.011724
0.023447
0.023447
0
-0.023447
-0.035171
-0.035171
-0.035171
-0.035171
-0.058618
-0.07034
-0.058618
-0.07034
-0.07034
-0.07034
-0.046894
-0.035171
-0.035171
-0.011724
-0.011724
-0.023447
-0.035171
-0.011724
0.023447
0.058618
0.070341
0.082064
0.082064
0.082064
0.070341
0.058618
0.082064
0.10551
0.10551
0.10551
0.082064
0.070341
0.070341
0.070341
0.093787
0.082064
0.093787
0.093787
0.093787
0.093787
0.10551
0.11723
0.11723
0.12896
0.11723
0.093787
0.058618
0.023447
-0.046894
-0.093787
-0.11723
-0.11723
-0.11723
-0.10551
-0.10551
-0.093787
-0.093787
-0.093787
-0.093787
-0.093787
-0.082064
-0.058618
-0.023447
-0.011724
0
0.035171
0.046894
0.058618
0.058618
0.070341
0.070341
0.058618
0.046894
0.046894
0.035171
0.023447
0.023447
0.035171
0.023447
0.023447
0.046894
0.058618
0.070341
0.082064
0.070341
0.058618
0.093787
0.11723
0.12896
0.12896
0.14068
0.11723
0.10551
0.10551
0.11723
0.11723
0.093787
0.058618
0.046894
0.035171
0.035171
0.046894
0.046894
0.035171
0.011724
-0.011724
-0.023447
-0.023447
-0.035171
0
0.011724
0.011724
0.011724
0.011724
0.023447
0.035171
0.046894
0.058618
0.070341
0.058618
0.058618
0.070341
0.070341
0.082064
0.070341
0.070341
0.046894
-0.011724
-0.035171
-0.046894
-0.046894
-0.035171
-0.023447
0
0
0.011724
0.046894
0.058618
0.046894
0.058618
0.082064
0.093787
0.093787
0.093787
0.10551
0.11723
0.12896
0.1524
0.1524
0.16413
0.1524
0.1524
0.11723
0.10551
0.082064
0.046894
0
-0.011724
-0.011724
0
0
-0.023447
-0.082064
-0.082064
-0.07034
-0.058618
-0.058618
-0.07034
-0.093787
-0.10551
-0.093787
-0.082064
-0.082064
-0.07034
-0.07034
-0.07034
-0.046894
-0.011724
0
0
0.023447
0.011724
0.023447
0
-0.011724
0.011724
0
-0.023447
-0.023447
-0.023447
-0.011724
0.011724
0.011724
0.023447
0.023447
0.023447
0.023447
0
-0.046894
-0.046894
-0.035171
-0.035171
-0.046894
-0.035171
-0.011724
-0.023447
-0.058618
-0.07034
-0.07034
-0.07034
-0.082064
-0.093787
-0.082064
-0.07034
-0.046894
-0.011724
0.011724
0.011724
0
0
0
0.011724
0.035171
0.070341
0.10551
0.10551
0.10551
0.093787
0.093787
0.082064
0.10551
0.10551
0.11723
0.14068
0.16413
0.1524
0.12896
0.14068
0.14068
0.14068
0.12896
0.11723
0.12896
0.11723
0.10551
0.093787
0.093787
0.093787
0.093787
0.10551
0.11723
0.10551
0.093787
0.082064
0.046894
0.035171
0.035171
0.023447
0.011724
0
0.011724
0.035171
0.035171
0.035171
0.046894
0.058618
0.070341
0.082064
0.082064
0.082064
0.082064
0.058618
0.046894
0.023447
0.023447
0.023447
0.011724
0.023447
0.035171
0.046894
0.046894
0.046894
0.035171
-0.011724
-0.058618
-0.10551
-0.18758
-0.23447
-0.22274
-0.1993
-0.16413
-0.12896
-0.082064
-0.058618
-0.058618
-0.035171
0
0.035171
0.035171
0.046894
0.058618
0.046894
0.046894
0.058618
0.058618
0.035171
0.046894
0.058618
0.070341
0.058618
0.058618
0.070341
0.070341
0.070341
0.070341
0.058618
0.070341
0.058618
0.058618
0.046894
0.046894
0.046894
0.058618
0.058618
0.082064
0.082064
0.093787
0.11723
0.10551
0.082064
0.093787
0.1524
0.29309
0.45721
0.46894
0.37515
0.28136
0.21102
0.16413
0.11723
0.082064
0.058618
0.058618
0.046894
0.058618
0.046894
0.046894
0.035171
0.023447
0
-0.011724
-0.023447
-0.011724
-0.023447
-0.011724
-0.011724
-0.023447
-0.035171
-0.023447
-0.035171
-0.035171
-0.046894
-0.035171
-0.035171
-0.046894
-0.082064
-0.093787
-0.093787
-0.082064
-0.10551
-0.093787
-0.093787
-0.082064
-0.082064
-0.07034
-0.082064
-0.082064
-0.082064
-0.082064
-0.058618
-0.035171
-0.023447
-0.011724
0.023447
0.035171
0.023447
0.011724
0
-0.011724
-0.023447
-0.035171
-0.046894
-0.058618
-0.058618
-0.082064
-0.10551
-0.14068
-0.17585
-0.1993
-0.21102
-0.21102
-0.1993
-0.18758
-0.17585
-0.16413
-0.17585
-0.16413
-0.16413
-0.16413
-0.12896
-0.10551
-0.082064
-0.058618
-0.058618
-0.035171
-0.011724
-0.011724
0
0.011724
0.011724
0.023447
0.035171
0.023447
0.035171
0.046894
0.058618
0.046894
0.046894
0.046894
0.058618
0.070341
0.093787
0.10551
0.10551
0.11723
0.12896
0.1524
0.14068
0.11723
0.093787
0.082064
0.070341
0.058618
0.058618
0.070341
0.093787
0.10551
0.10551
0.093787
0.10551
0.10551
0.10551
0.11723
0.11723
0.093787
0.11723
0.12896
0.12896
0.14068
0.11723
0.10551
0.082064
0.082064
0.070341
0.046894
0.058618
0.058618
0.058618
0.070341
0.093787
0.12896
0.1524
0.16413
0.1524
0.1524
0.11723
0.10551
0.10551
0.10551
0.10551
0.10551
0.093787
0.093787
0.082064
0.082064
0.082064
0.093787
0.093787
0.082064
0.070341
0.058618
0.046894
0.035171
0.011724
0
-0.035171
-0.058618
-0.058618
-0.058618
-0.058618
-0.035171
-0.035171
-0.011724
-0.011724
0
0
0.011724
0.011724
0.011724
0.035171
0.046894
0.046894
0.035171
0.046894
0.058618
0.058618
0.035171
0.035171
0
-0.023447
-0.046894
-0.07034
-0.082064
-0.093787
-0.093787
-0.07034
-0.058618
-0.07034
-0.046894
-0.035171
-0.011724
0.035171
0.070341
0.082064
0.082064
0.082064
0.058618
0.070341
0.082064
0.082064
0.093787
0.10551
0.12896
0.1524
0.14068
0.1524
0.1524
0.17585
0.16413
0.17585
0.1524
0.12896
0.070341
0.035171
0
-0.011724
0
0
0.023447
0.035171
0.023447
0.023447
0.023447
0.011724
0
0.011724
0.011724
0.023447
0.023447
0.035171
0.035171
0.035171
0.046894
0.046894
0.023447
0.011724
0
0.011724
0.023447
0.011724
0.023447
0.035171
0.035171
0.023447
0
0.011724
0.023447
0
-0.023447
-0.046894
-0.058618
-0.07034
-0.058618
-0.035171
0
0.011724
0.023447
0.011724
0.023447
0.023447
0.035171
0.035171
0.023447
0.023447
0
-0.035171
-0.058618
-0.082064
-0.093787
-0.093787
-0.082064
-0.07034
-0.046894
-0.058618
-0.07034
-0.07034
-0.058618
-0.07034
-0.082064
-0.093787
-0.093787
-0.093787
-0.093787
-0.10551
-0.10551
-0.10551
-0.10551
-0.10551
-0.093787
-0.082064
-0.093787
-0.10551
-0.10551
-0.10551
-0.093787
-0.082064
-0.082064
-0.093787
-0.082064
-0.07034
-0.046894
-0.035171
-0.011724
-0.023447
-0.023447
-0.023447
-0.046894
-0.046894
-0.023447
0
0.011724
0.035171
0.058618
0.058618
0.070341
0.082064
0.082064
0.082064
0.082064
0.10551
0.14068
0.1524
0.14068
0.14068
0.10551
0.093787
0.070341
0.046894
0.035171
0.058618
0.046894
0.011724
-0.011724
-0.011724
0
0.023447
0.023447
0.011724
0.023447
0.035171
0.035171
0.046894
0.023447
0.011724
-0.011724
-0.035171
-0.07034
-0.046894
-0.011724
0.023447
0.035171
0.046894
0.046894
0.058618
0.070341
0.058618
0.082064
0.10551
0.10551
0.10551
0.10551
0.10551
0.10551
0.10551
0.12896
0.14068
0.1524
0.16413
0.14068
0.14068
0.12896
0.058618
0.011724
0.011724
0
-0.023447
-0.035171
-0.035171
-0.046894
-0.035171
-0.035171
-0.07034
-0.082064
-0.082064
-0.07034
-0.058618
-0.046894
-0.058618
-0.058618
-0.023447
0.070341
0.23447
0.3986
0.43377
0.38687
0.30481
0.23447
0.16413
0.093787
0.046894
0
-0.035171
-0.046894
-0.035171
-0.023447
-0.023447
-0.011724
0
-0.011724
-0.023447
0
0.023447
0.058618
0.058618
0.070341
0.058618
0.070341
0.082064
0.10551
0.10551
0.093787
0.093787
0.070341
0.058618
0.058618
0.023447
-0.011724
-0.035171
-0.023447
0
0
0
0
-0.023447
-0.023447
0
0.011724
0.011724
0.011724
0
0.011724
0.023447
0.011724
0.011724
0.023447
0.023447
0.035171
0.023447
0
-0.035171
-0.058618
-0.07034
-0.07034
-0.07034
-0.082064
-0.082064
-0.058618
-0.058618
-0.07034
-0.07034
-0.058618
-0.046894
-0.058618
-0.07034
-0.082064
-0.07034
-0.07034
-0.082064
-0.082064
-0.058618
-0.035171
0
0.011724
0.023447
0.035171
0.058618
0.070341
0.070341
0.070341
0.070341
0.082064
0.10551
0.11723
0.14068
0.1524
0.16413
0.16413
0.16413
0.16413
0.16413
0.16413
0.17585
0.18758
0.18758
0.17585
0.18758
0.17585
0.1524
0.1524
0.1524
0.1524
0.14068
0.11723
0.10551
0.093787
0.10551
0.093787
0.093787
0.093787
0.082064
0.082064
0.10551
0.11723
0.12896
0.12896
0.12896
0.11723
0.11723
0.093787
0.093787
0.082064
0.058618
0.046894
0.035171
0.035171
0.023447
0.035171
0.058618
0.082064
0.093787
0.10551
0.10551
0.12896
0.14068
0.14068
0.16413
0.1524
0.10551
0.093787
0.093787
0.082064
0.082064
0.058618
0.046894
0.023447
0.035171
0
-0.035171
-0.046894
-0.058618
-0.046894
-0.035171
-0.023447
-0.035171
-0.023447
-0.011724
-0.011724
-0.023447
-0.011724
-0.011724
0
-0.035171
-0.07034
-0.07034
-0.07034
-0.082064
-0.082064
-0.07034
-0.058618
-0.058618
-0.035171
0
0.023447
0.046894
0.070341
0.058618
0.035171
0.023447
0.011724
0
-0.011724
-0.011724
0
0.011724
0.023447
0.035171
0.046894
0.070341
0.070341
0.070341
0.082064
0.058618
0.070341
0.093787
0.10551
0.093787
0.093787
0.082064
0.070341
0.035171
0.023447
0.011724
0.011724
0.035171
0.046894
0.046894
0.035171
0.046894
0.070341
0.082064
0.082064
0.082064
0.070341
0.046894
0.046894
0.035171
0.011724
0
0
-0.023447
-0.035171
-0.035171
0
0.023447
0.011724
0.011724
0
0.011724
0
0.011724
0.011724
-0.011724
0.011724
0.035171
0.046894
0.070341
0.082064
0.093787
0.093787
0.082064
0.093787
0.11723
0.11723
0.11723
0.14068
0.12896
0.12896
0.11723
0.11723
0.10551
0.093787
0.082064
0.070341
0.046894
0.035171
0.035171
0.023447
0.023447
-0.011724
-0.023447
-0.046894
-0.046894
-0.035171
-0.035171
-0.046894
-0.035171
-0.035171
-0.035171
-0.046894
-0.058618
-0.035171
-0.023447
-0.046894
-0.035171
-0.035171
-0.046894
-0.046894
-0.035171
-0.035171
-0.023447
-0.011724
0
-0.023447
-0.011724
-0.011724
-0.011724
-0.023447
-0.011724
0.011724
0.011724
0.023447
0
0.023447
0.035171
0.035171
0.035171
0.023447
0
0
0
0.011724
0.035171
0.046894
0.070341
0.082064
0.082064
0.10551
0.11723
0.10551
0.082064
0.070341
0.082064
0.093787
0.10551
0.10551
0.093787
0.093787
0.082064
0.058618
0.046894
0.035171
0.011724
0.011724
0.023447
0.035171
0.035171
0.023447
0.023447
0
-0.011724
-0.011724
0
0
-0.011724
-0.011724
-0.011724
-0.011724
-0.011724
0
0
0
0
0
-0.011724
0.023447
0.046894
0.058618
0.082064
0.093787
0.10551
0.12896
0.17585
0.18758
0.16413
0.14068
0.10551
0.070341
0.011724
-0.023447
-0.023447
-0.011724
0.011724
0.023447
0.023447
0.011724
0
0.011724
0.023447
0.023447
0.023447
0.035171
0.035171
0.058618
0.058618
0.035171
0
0
0.011724
0.023447
0.058618
0.082064
0.10551
0.12896
0.14068
0.16413
0.18758
0.17585
0.1524
0.14068
0.12896
0.11723
0.10551
0.11723
0.10551
0.070341
0.046894
0.023447
0.011724
-0.023447
-0.046894
-0.046894
-0.011724
0.10551
0.29309
0.38687
0.32826
0.22274
0.11723
0.070341
0.023447
0
-0.011724
-0.023447
-0.046894
-0.093787
-0.10551
-0.093787
-0.093787
-0.082064
-0.10551
-0.12896
-0.14068
-0.14068
-0.14068
-0.1524
-0.16413
-0.1524
-0.1524
-0.11723
-0.093787
-0.082064
-0.082064
-0.082064
-0.093787
-0.082064
-0.058618
-0.046894
-0.046894
-0.023447
-0.023447
0.023447
0.011724
0.023447
0.046894
0.058618
0.058618
0.058618
0.046894
0.070341
0.058618
0.046894
0.046894
0.035171
0.046894
0.058618
0.058618
0.023447
-0.011724
0
0.011724
0.035171
0.035171
0.046894
0.035171
0.011724
-0.035171
-0.058618
-0.058618
-0.07034
-0.093787
-0.11723
-0.11723
-0.11723
-0.10551
-0.10551
-0.10551
-0.11723
-0.12896
-0.14068
-0.12896
-0.11723
-0.082064
-0.07034
-0.07034
-0.082064
-0.082064
-0.082064
-0.11723
-0.12896
-0.10551
-0.093787
-0.11723
-0.10551
-0.093787
-0.082064
-0.082064
-0.058618
-0.046894
-0.07034
-0.058618
-0.046894
-0.046894
-0.058618
-0.058618
-0.058618
-0.035171
-0.011724
0.023447
0.035171
0.023447
0.035171
0.035171
0.046894
0.058618
0.082064
0.082064
0.093787
0.10551
0.10551
0.093787
0.10551
0.10551
0.10551
0.10551
0.11723
0.14068
0.1524
0.16413
0.17585
0.16413
0.14068
0.14068
0.14068
0.1524
0.1524
0.1524
0.16413
0.17585
0.18758
0.18758
0.1993
0.21102
0.17585
0.1524
0.14068
0.14068
0.14068
0.12896
0.14068
0.1524
0.1524
0.16413
0.16413
0.14068
0.12896
0.12896
0.11723
0.12896
0.14068
0.14068
0.14068
0.12896
0.11723
0.12896
0.14068
0.14068
0.14068
0.14068
0.12896
0.11723
0.093787
0.070341
0.035171
0
-0.011724
-0.023447
-0.011724
0.011724
0.035171
0.046894
0.058618
0.082064
0.093787
0.10551
0.10551
0.093787
0.11723
0.11723
0.11723
0.11723
0.11723
0.12896
0.12896
0.10551
0.070341
0.046894
0.058618
0.082064
0.070341
0.058618
0.058618
0.058618
0.082064
0.093787
0.093787
0.093787
0.093787
0.093787
0.10551
0.12896
0.14068
0.1524
0.1524
0.14068
0.14068
0.12896
0.12896
0.11723
0.11723
0.11723
0.11723
0.14068
0.17585
0.18758
0.17585
0.16413
0.14068
0.10551
0.093787
0.082064
0.082064
0.093787
0.093787
0.070341
0.070341
0.058618
0.082064
0.070341
0.058618
0.058618
0.058618
0.070341
0.070341
0.058618
0.058618
0.023447
0.011724
0.023447
0.035171
0.035171
0.058618
0.070341
0.058618
0.035171
0.023447
0.011724
0.011724
0
-0.023447
-0.035171
-0.035171
-0.035171
-0.035171
-0.046894
-0.035171
-0.058618
-0.082064
-0.07034
-0.058618
-0.07034
-0.07034
-0.046894
-0.035171
-0.011724
-0.011724
-0.011724
-0.035171
-0.023447
-0.011724
0
0
-0.011724
-0.011724
-0.011724
0
0
0
0
0.011724
0.023447
0.023447
0.011724
-0.011724
-0.035171
-0.035171
-0.011724
0
-0.011724
-0.011724
0.011724
0.023447
0.035171
0.035171
0.011724
-0.011724
-0.023447
-0.035171
-0.035171
-0.046894
-0.046894
-0.046894
-0.035171
-0.023447
-0.011724
-0.011724
-0.023447
-0.011724
0.023447
0.046894
0.058618
0.070341
0.070341
0.082064
0.082064
0.093787
0.093787
0.10551
0.12896
0.1524
0.14068
0.12896
0.11723
0.10551
0.093787
0.082064
0.070341
0.070341
0.070341
0.070341
0.082064
0.10551
0.12896
0.11723
0.12896
0.12896
0.12896
0.14068
0.12896
0.12896
0.11723
0.093787
0.082064
0.10551
0.12896
0.12896
0.14068
0.17585
0.18758
0.16413
0.12896
0.058618
0.011724
-0.023447
-0.082064
-0.14068
-0.1524
-0.14068
-0.093787
-0.046894
-0.011724
0
0
0
0.011724
0
-0.011724
-0.023447
-0.011724
0
0.023447
0.023447
0.011724
0.023447
0.011724
0.023447
0.011724
0
-0.011724
-0.011724
0
0.011724
0.011724
0.011724
0.023447
0.023447
0.011724
0
0
-0.023447
-0.023447
-0.023447
-0.011724
-0.011724
-0.011724
-0.011724
-0.023447
-0.023447
-0.011724
0.058618
0.17585
0.3517
0.41032
0.3517
0.28136
0.22274
0.18758
0.1524
0.10551
0.046894
0.011724
-0.035171
-0.046894
-0.046894
-0.058618
-0.046894
-0.035171
-0.035171
-0.046894
-0.046894
-0.035171
-0.046894
-0.046894
-0.046894
-0.023447
-0.023447
-0.035171
-0.046894
-0.058618
-0.058618
-0.058618
-0.035171
-0.011724
0.023447
0.046894
0.035171
0.023447
0
0.011724
0.023447
0.023447
0.023447
0.011724
0.011724
0
-0.023447
-0.035171
-0.011724
-0.023447
-0.023447
-0.011724
0.011724
0.046894
0.046894
0.035171
0.035171
0.011724
-0.011724
-0.035171
-0.023447
-0.023447
-0.035171
-0.035171
0
0.011724
0.011724
0
-0.011724
-0.035171
-0.07034
-0.07034
-0.082064
-0.093787
-0.082064
-0.082064
-0.093787
-0.10551
-0.10551
-0.10551
-0.093787
-0.082064
-0.058618
-0.058618
-0.035171
0
0.046894
0.058618
0.070341
0.070341
0.070341
0.082064
0.082064
0.058618
0.058618
0.046894
0.046894
0
-0.023447
-0.035171
-0.023447
-0.011724
0
0
-0.011724
-0.011724
-0.011724
-0.023447
-0.035171
-0.046894
-0.046894
-0.035171
-0.035171
-0.035171
-0.035171
-0.011724
-0.011724
-0.011724
-0.011724
-0.011724
-0.011724
0
0.035171
0.035171
0.046894
0.035171
0.035171
0.011724
0
-0.011724
0
0.023447
0.046894
0.070341
0.070341
0.070341
0.070341
0.093787
0.10551
0.10551
0.10551
0.082064
0.058618
0.046894
0.058618
0.070341
0.070341
0.046894
0.070341
0.058618
0.046894
0.035171
0.046894
0.058618
0.082064
0.082064
0.058618
0.058618
0.035171
0.035171
0.058618
0.070341
0.082064
0.058618
0.058618
0.046894
0.023447
0
0
0.035171
0.046894
0.070341
0.093787
0.093787
0.093787
0.11723
0.10551
0.070341
0.046894
0.046894
0.046894
0.058618
0.046894
0.035171
0.011724
-0.011724
-0.046894
-0.07034
-0.082064
-0.10551
-0.10551
-0.10551
-0.093787
-0.082064
-0.07034
-0.058618
-0.046894
-0.023447
0.011724
0.046894
0.058618
0.070341
0.082064
0.070341
0.058618
0.046894
0.046894
0.082064
0.093787
0.082064
0.082064
0.082064
0.093787
0.10551
0.10551
0.10551
0.11723
0.10551
0.082064
0.070341
0.046894
0.023447
0.023447
0.023447
0.023447
0.011724
0
-0.011724
-0.011724
-0.023447
-0.035171
-0.035171
-0.035171
-0.046894
-0.058618
-0.046894
-0.046894
-0.058618
-0.07034
-0.046894
-0.046894
-0.046894
-0.035171
-0.035171
-0.046894
-0.046894
-0.07034
-0.07034
-0.058618
-0.035171
-0.023447
-0.011724
-0.011724
-0.011724
0
-0.023447
-0.035171
-0.023447
-0.023447
-0.035171
-0.023447
-0.011724
-0.011724
-0.023447
0.011724
0.011724
0.046894
0.070341
0.082064
0.082064
0.093787
0.093787
0.093787
0.093787
0.082064
0.082064
0.082064
0.070341
0.093787
0.10551
0.10551
0.11723
0.11723
0.070341
0.023447
0.011724
0
-0.011724
0
0
0.023447
0.035171
0.035171
0.023447
0.023447
0.023447
0.011724
0.023447
0.035171
0.023447
0.046894
0.046894
0.035171
0.023447
0.011724
-0.011724
0.011724
0.011724
0.023447
0.035171
0.023447
0.035171
0.058618
0.093787
0.10551
0.12896
0.11723
0.11723
0.11723
0.1524
0.1524
0.16413
0.14068
0.12896
0.1524
0.1524
0.1524
0.14068
0.14068
0.11723
0.11723
0.10551
0.093787
0.082064
0.070341
0.070341
0.058618
0.058618
0.046894
0.046894
0.046894
0.035171
0.058618
0.070341
0.093787
0.10551
0.10551
0.070341
0.035171
0
-0.011724
-0.023447
-0.011724
0.011724
0.035171
0.046894
0.082064
0.11723
0.12896
0.14068
0.082064
0.035171
-0.011724
-0.07034
-0.12896
-0.12896
-0.10551
-0.082064
-0.058618
-0.011724
0.011724
0.011724
0.023447
0.046894
0.058618
0.046894
0.070341
0.082064
0.082064
0.082064
0.070341
0.058618
0.023447
0
-0.023447
-0.011724
0.011724
0.046894
0.070341
0.082064
0.11723
0.10551
0.058618
0.035171
0.035171
0.070341
0.070341
0.058618
0.070341
0.093787
0.10551
0.10551
0.11723
0.10551
0.093787
0.082064
0.10551
0.12896
0.1993
0.32826
0.46894
0.48066
0.3986
0.29309
0.21102
0.16413
0.14068
0.093787
0.058618
0.035171
0.023447
-0.011724
-0.023447
-0.011724
-0.035171
-0.023447
-0.011724
0.011724
0.035171
0.035171
0.035171
0.011724
-0.011724
-0.046894
-0.07034
-0.07034
-0.058618
-0.046894
-0.046894
-0.046894
-0.082064
-0.093787
-0.10551
-0.093787
-0.093787
-0.082064
-0.082064
-0.058618
-0.058618
-0.046894
-0.046894
-0.023447
-0.011724
0.011724
0.011724
0.023447
0.035171
0.023447
0.046894
0.035171
0.023447
0.035171
0.035171
0
-0.011724
0.011724
0
-0.035171
-0.046894
-0.058618
-0.07034
-0.07034
-0.046894
-0.046894
-0.082064
-0.10551
-0.11723
-0.11723
-0.11723
-0.12896
-0.14068
-0.1524
-0.1524
-0.1524
-0.1524
-0.16413
-0.14068
-0.10551
-0.093787
-0.058618
-0.023447
-0.023447
-0.023447
0.011724
0.046894
0.082064
0.093787
0.10551
0.10551
0.11723
0.12896
0.14068
0.1524
0.1524
0.1524
0.14068
0.14068
0.14068
0.16413
0.16413
0.17585
0.16413
0.16413
0.16413
0.16413
0.16413
0.16413
0.1524
0.16413
0.16413
0.1524
0.14068
0.12896
0.14068
0.10551
0.093787
0.093787
0.10551
0.10551
0.093787
0.10551
0.093787
0.082064
0.082064
0.093787
0.10551
0.11723
0.14068
0.1524
0.14068
0.12896
0.10551
0.093787
0.070341
0.058618
0.046894
0.058618
0.046894
0.023447
0.023447
0.011724
-0.011724
-0.058618
-0.058618
-0.07034
-0.082064
-0.082064
-0.093787
-0.10551
-0.11723
-0.11723
-0.11723
-0.12896
-0.11723
-0.093787
-0.093787
-0.082064
-0.07034
-0.07034
-0.058618
-0.058618
-0.035171
-0.023447
-0.011724
-0.035171
-0.023447
-0.023447
-0.046894
-0.058618
-0.058618
-0.082064
-0.082064
-0.07034
-0.058618
-0.035171
-0.011724
0.011724
0
0
0
0
0.023447
0.035171
0.046894
0.058618
0.046894
0.046894
0.046894
0.058618
0.046894
0.035171
0.058618
0.058618
0.058618
0.046894
0.058618
0.046894
0.046894
0.070341
0.058618
0.070341
0.058618
0.070341
0.058618
0.058618
0.070341
0.082064
0.093787
0.093787
0.070341
0.070341
0.082064
0.082064
0.070341
0.082064
0.070341
0.070341
0.070341
0.093787
0.082064
0.058618
0.023447
0.035171
0.058618
0.082064
0.093787
0.093787
0.082064
0.082064
0.10551
0.11723
0.093787
0.082064
0.046894
0.058618
0.046894
0.046894
0.058618
0.046894
0.046894
0.058618
0.070341
0.093787
0.093787
0.093787
0.070341
0.070341
0.070341
0.070341
0.046894
0.058618
0.046894
0.046894
0.058618
0.070341
0.058618
0.046894
0.058618
0.058618
0.046894
0.058618
0.058618
0.070341
0.070341
0.070341
0.070341
0.046894
0.046894
0.058618
0.035171
0
-0.011724
-0.023447
-0.011724
0.011724
0.035171
0.035171
0.058618
0.082064
0.093787
0.070341
0.082064
0.058618
0.046894
0.070341
0.058618
0.070341
0.093787
0.082064
0.058618
0.070341
0.070341
0.070341
0.058618
0.070341
0.082064
0.093787
0.093787
0.070341
0.070341
0.070341
0.058618
0.082064
0.082064
0.070341
0.070341
0.058618
0.035171
0.035171
0.035171
0.046894
0.058618
0.070341
0.093787
0.093787
0.10551
0.11723
0.11723
0.14068
0.14068
0.1524
0.1524
0.16413
0.16413
0.14068
0.12896
0.12896
0.1524
0.1524
0.14068
0.1524
0.1524
0.1524
0.1524
0.1524
0.12896
0.11723
0.11723
0.082064
0.058618
0.046894
0.046894
0.046894
0.046894
0.046894
0.023447
-0.011724
-0.023447
-0.023447
-0.035171
-0.023447
-0.023447
0.011724
0.035171
0.046894
0.046894
0.023447
0.023447
0
-0.023447
-0.011724
0
0.023447
0.023447
0.046894
0.070341
0.082064
0.070341
0.093787
0.14068
0.17585
0.21102
0.18758
0.17585
0.12896
0.082064
0.035171
-0.023447
-0.07034
-0.07034
-0.035171
0
0.023447
0.023447
0
0.011724
0.023447
0.035171
0.035171
0.035171
0.035171
0.035171
0.023447
0.023447
0.023447
0.035171
0.023447
0.035171
0.046894
0.058618
0.070341
0.070341
0.082064
0.082064
0.093787
0.10551
0.10551
0.10551
0.10551
0.10551
0.10551
0.093787
0.082064
0.046894
0.023447
0.035171
0.035171
0.058618
0.058618
0.035171
0.046894
0.093787
0.21102
0.3986
0.45721
0.41032
0.33998
0.28136
0.24619
0.18758
0.14068
0.11723
0.10551
0.082064
0.070341
0.070341
0.070341
0.058618
0.035171
0.023447
0.023447
0
-0.023447
-0.023447
-0.011724
-0.011724
-0.011724
-0.011724
-0.011724
0
0
-0.011724
-0.046894
-0.058618
-0.046894
-0.035171
-0.035171
-0.023447
-0.011724
-0.011724
-0.011724
-0.011724
-0.011724
-0.023447
-0.011724
-0.035171
-0.035171
-0.011724
-0.011724
-0.023447
-0.046894
-0.035171
-0.023447
-0.035171
-0.046894
-0.035171
-0.023447
-0.011724
-0.011724
0
-0.011724
-0.023447
-0.035171
-0.082064
-0.10551
-0.16413
-0.16413
-0.16413
-0.16413
-0.16413
-0.1524
-0.1524
-0.14068
-0.12896
-0.10551
-0.093787
-0.093787
-0.093787
-0.093787
-0.07034
-0.046894
-0.023447
-0.035171
-0.046894
-0.023447
-0.023447
-0.011724
0
0.035171
0.058618
0.082064
0.082064
0.093787
0.11723
0.14068
0.1524
0.17585
0.17585
0.16413
0.17585
0.18758
0.18758
0.18758
0.17585
0.17585
0.16413
0.12896
0.10551
0.10551
0.11723
0.11723
0.11723
0.10551
0.082064
0.058618
0.046894
0.046894
0.058618
0.070341
0.070341
0.058618
0.023447
0
-0.011724
-0.023447
-0.035171
-0.035171
-0.058618
-0.082064
-0.07034
-0.058618
-0.058618
-0.058618
-0.046894
-0.046894
-0.058618
-0.07034
-0.058618
-0.058618
-0.035171
-0.023447
0
0
-0.011724
-0.023447
-0.023447
-0.023447
-0.035171
-0.035171
-0.011724
-0.011724
0.011724
0.011724
0
0.011724
0.011724
0.011724
0.046894
0.058618
0.070341
0.082064
0.082064
0.093787
0.10551
0.093787
0.082064
0.10551
0.10551
0.093787
0.093787
0.10551
0.11723
0.10551
0.10551
0.10551
0.082064
0.058618
0.046894
0.058618
0.070341
0.058618
0.070341
0.082064
0.10551
0.082064
0.082064
0.082064
0.070341
0.058618
0.070341
0.070341
0.070341
0.070341
0.093787
0.10551
0.093787
0.093787
0.046894
0.035171
0.023447
0.035171
0.035171
0.035171
0.011724
-0.035171
-0.046894
-0.046894
-0.058618
-0.046894
-0.035171
-0.035171
-0.035171
-0.035171
-0.046894
-0.058618
-0.07034
-0.082064
-0.082064
-0.093787
-0.10551
-0.11723
-0.10551
-0.093787
-0.07034
-0.046894
-0.023447
-0.011724
-0.023447
-0.035171
-0.023447
-0.023447
-0.058618
-0.093787
-0.11723
-0.12896
-0.11723
-0.10551
-0.093787
-0.082064
-0.046894
-0.023447
-0.011724
0.011724
0.023447
0.035171
0.011724
-0.011724
0
0.035171
0.058618
0.070341
0.093787
0.10551
0.093787
0.070341
0.070341
0.082064
0.093787
0.10551
0.14068
0.16413
0.17585
0.17585
0.17585
0.16413
0.17585
0.18758
0.1993
0.1993
0.1993
0.22274
0.21102
0.21102
0.21102
0.21102
0.1993
0.18758
0.16413
0.11723
0.093787
0.093787
0.082064
0.058618
0.023447
0
-0.023447
-0.046894
-0.035171
-0.046894
-0.058618
-0.058618
-0.07034
-0.093787
-0.10551
-0.14068
-0.16413
-0.16413
-0.1524
-0.12896
-0.10551
-0.093787
-0.11723
-0.12896
-0.11723
-0.11723
-0.10551
-0.14068
-0.17585
-0.17585
-0.16413
-0.16413
-0.1524
-0.1524
-0.14068
-0.12896
-0.10551
-0.082064
-0.046894
-0.035171
-0.011724
0.011724
0.023447
0.035171
0.035171
0.046894
0.046894
0.046894
0.058618
0.082064
0.093787
0.082064
0.070341
0.082064
0.082064
0.058618
0.046894
0.046894
0.046894
